-0.08053
-0.09938
-0.09275
-0.09636
-0.09408
-0.09727
-0.12809
-0.14416
-0.12238
-0.11274
-0.13973
-0.17383
-0.17291
-0.15090
-0.16101
-0.17891
-0.18295
-0.16431
-0.16468
-0.20699
-0.18358
-0.14213
-0.12723
-0.14755
-0.16329
-0.13507
-0.11466
-0.11150
-0.12366
-0.12111
-0.09031
0.03362
0.20938
0.36398
0.47958
0.60236
0.78320
1.07218
1.40386
1.73542
2.01036
2.10013
1.97590
1.50626
0.91815
0.61507
0.49100
0.44444
0.41150
0.38454
0.34772
0.27683
0.18817
0.12417
0.11504
0.06683
-0.00580
-0.07023
-0.11676
-0.15506
-0.21855
-0.27235
-0.28955
-0.27821
-0.28987
-0.31902
-0.32474
-0.32315
-0.34059
-0.35019
-0.34689
-0.33845
-0.34687
-0.35968
-0.37134
-0.37372
-0.35966
-0.38758
-0.39472
-0.38717
-0.40770
-0.42385
-0.43928
-0.43836
-0.45189
-0.46091
-0.48202
-0.47269
-0.47330
-0.51195
-0.54747
-0.55446
-0.52650
-0.55654
-0.60563
-0.59797
-0.56305
-0.56843
-0.59038
-0.57993
-0.54091
-0.51592
-0.52205
-0.50308
-0.44621
-0.41088
-0.39178
-0.37148
-0.32060
-0.28461
-0.24326
-0.23052
-0.21267
-0.17028
-0.15896
-0.16318
-0.15262
-0.14851
-0.15537
-0.16424
-0.15465
-0.15220
-0.15453
-0.16499
-0.15076
-0.16044
-0.16789
-0.17484
-0.17033
-0.15498
-0.15642
-0.19160
-0.19968
-0.17132
-0.17374
-0.19493
-0.20406
-0.17985
-0.15590
-0.17290
-0.20963
-0.20565
-0.19183
-0.18922
-0.19995
-0.19854
-0.18363
-0.19051
-0.19151
-0.20169
-0.19324
-0.17054
-0.18795
-0.19338
-0.17376
-0.18279
-0.17919
-0.17714
-0.16882
-0.16612
-0.18315
-0.20010
-0.18021
-0.16013
-0.19938
-0.19273
-0.18593
-0.16691
-0.18049
-0.20763
-0.20583
-0.18711
-0.18614
-0.20837
-0.21734
-0.18845
-0.17159
-0.19513
-0.20735
-0.19000
-0.19012
-0.18830
-0.18808
-0.17131
-0.16337
-0.17700
-0.17757
-0.15863
-0.13889
-0.15719
-0.19617
-0.12488
-0.09769
-0.10890
-0.13184
-0.12357
-0.09748
-0.10318
-0.14140
-0.16013
-0.14653
-0.16146
-0.16847
-0.17610
-0.15692
-0.16093
-0.18547
-0.20455
-0.19356
-0.19229
-0.20229
-0.20439
-0.18412
-0.19945
-0.21608
-0.22294
-0.21715
-0.18674
-0.19327
-0.20957
-0.18931
-0.14811
-0.14537
-0.17144
-0.17089
-0.14686
-0.13222
-0.15657
-0.16751
-0.09645
0.07984
0.24378
0.36734
0.51397
0.66815
0.84296
1.03954
1.28627
1.57484
1.83396
2.01739
2.08454
1.96333
1.57871
1.05842
0.71793
0.59100
0.51416
0.45508
0.42524
0.41417
0.36686
0.26843
0.20670
0.16587
0.10491
0.02660
-0.02064
-0.06218
-0.11271
-0.17987
-0.24059
-0.25755
-0.27006
-0.32590
-0.37496
-0.37799
-0.35621
-0.36241
-0.39802
-0.41717
-0.41033
-0.41873
-0.43020
-0.42474
-0.41248
-0.42816
-0.46180
-0.46691
-0.44746
-0.44314
-0.47425
-0.48476
-0.48755
-0.48780
-0.51953
-0.55211
-0.54675
-0.51501
-0.54336
-0.56954
-0.57367
-0.58638
-0.58966
-0.62105
-0.64147
-0.63563
-0.65733
-0.68181
-0.67210
-0.64482
-0.67500
-0.71174
-0.70138
-0.67572
-0.66623
-0.67393
-0.68249
-0.66819
-0.62291
-0.60804
-0.60901
-0.56171
-0.53099
-0.50615
-0.47854
-0.42791
-0.37197
-0.33617
-0.32530
-0.27952
-0.26069
-0.26617
-0.27143
-0.25026
-0.19721
-0.19988
-0.23011
-0.22989
-0.20055
-0.19686
-0.21787
-0.21942
-0.20346
-0.20446
-0.20983
-0.21170
-0.20838
-0.19290
-0.20675
-0.21759
-0.20520
-0.19614
-0.21072
-0.22461
-0.22030
-0.19240
-0.20485
-0.23514
-0.23847
-0.22839
-0.21295
-0.22819
-0.24497
-0.23224
-0.22969
-0.24643
-0.24245
-0.22772
-0.23115
-0.24223
-0.24030
-0.22385
-0.21840
-0.22540
-0.24931
-0.23257
-0.19943
-0.21590
-0.22930
-0.21896
-0.19843
-0.20633
-0.21216
-0.21268
-0.20477
-0.19899
-0.20823
-0.21393
-0.18989
-0.20091
-0.22399
-0.20533
-0.19180
-0.18495
-0.19241
-0.22734
-0.21185
-0.17717
-0.18664
-0.23516
-0.23188
-0.19196
-0.18899
-0.20906
-0.19667
-0.18569
-0.19638
-0.21528
-0.21195
-0.19201
-0.18632
-0.19718
-0.19915
-0.15353
-0.14682
-0.16941
-0.16253
-0.13783
-0.11085
-0.12886
-0.12857
-0.12771
-0.12639
-0.12726
-0.14510
-0.12752
-0.13503
-0.16128
-0.17970
-0.18080
-0.15378
-0.14570
-0.17726
-0.20458
-0.18219
-0.18996
-0.21154
-0.21565
-0.21503
-0.21445
-0.21849
-0.20977
-0.18804
-0.19289
-0.20996
-0.19414
-0.16099
-0.15384
-0.16830
-0.17985
-0.15776
-0.13011
-0.14001
-0.14907
-0.14430
-0.12253
-0.08634
-0.02463
0.13140
0.30628
0.45774
0.58840
0.74081
0.94106
1.15237
1.36739
1.64820
1.93430
2.06659
2.02223
1.81163
1.43492
0.98404
0.64104
0.46619
0.43924
0.45745
0.41390
0.34743
0.27331
0.21851
0.16268
0.09358
0.04971
-0.01736
-0.07842
-0.14058
-0.18394
-0.21500
-0.23262
-0.29315
-0.33384
-0.30446
-0.31232
-0.33168
-0.34812
-0.32880
-0.34034
-0.37122
-0.39426
-0.36128
-0.33896
-0.35622
-0.39175
-0.40253
-0.38422
-0.39400
-0.41943
-0.43923
-0.42010
-0.41672
-0.43107
-0.45566
-0.44998
-0.45740
-0.48705
-0.49991
-0.49892
-0.50774
-0.54391
-0.54999
-0.55039
-0.55435
-0.59733
-0.61957
-0.61801
-0.61897
-0.61753
-0.64434
-0.65303
-0.60927
-0.60778
-0.62415
-0.62436
-0.59198
-0.56261
-0.54461
-0.51132
-0.47637
-0.42979
-0.39681
-0.37256
-0.33513
-0.28434
-0.27216
-0.25950
-0.21309
-0.18278
-0.18019
-0.20214
-0.18395
-0.15861
-0.15171
-0.16817
-0.18204
-0.15129
-0.15782
-0.15726
-0.16402
-0.17035
-0.13962
-0.15384
-0.16187
-0.14836
-0.14903
-0.16994
-0.17877
-0.16604
-0.14453
-0.16896
-0.18873
-0.17672
-0.15562
-0.15040
-0.17839
-0.17422
-0.16183
-0.17719
-0.20809
-0.19038
-0.16292
-0.17569
-0.17809
-0.18210
-0.16087
-0.15302
-0.18839
-0.19607
-0.17339
-0.15893
-0.18022
-0.17217
-0.16134
-0.14972
-0.15951
-0.16601
-0.16268
-0.14925
-0.17461
-0.18482
-0.16039
-0.14423
-0.15377
-0.17947
-0.17398
-0.14813
-0.14437
-0.17458
-0.18323
-0.16030
-0.15083
-0.16369
-0.17001
-0.15606
-0.14942
-0.17531
-0.18546
-0.16174
-0.14760
-0.16728
-0.18779
-0.15452
-0.12522
-0.14477
-0.18547
-0.16259
-0.15758
-0.16001
-0.15345
-0.14542
-0.12980
-0.13521
-0.14852
-0.13623
-0.09939
-0.09175
-0.10256
-0.11789
-0.07842
-0.07637
-0.09731
-0.11867
-0.10667
-0.11150
-0.12828
-0.14048
-0.15777
-0.14673
-0.13874
-0.16535
-0.17025
-0.16354
-0.17742
-0.19513
-0.19171
-0.17392
-0.19224
-0.20364
-0.19493
-0.17701
-0.16636
-0.18926
-0.19299
-0.17287
-0.16215
-0.17172
-0.16308
-0.14411
-0.12983
-0.14534
-0.13936
-0.12887
-0.12264
-0.13752
-0.15555
-0.07180
0.06865
0.21301
0.31656
0.43239
0.54701
0.65547
0.82114
1.07729
1.38964
1.69839
1.91061
1.95511
1.81352
1.43091
0.94412
0.63811
0.54925
0.50180
0.46636
0.39817
0.36284
0.31529
0.21855
0.14637
0.09338
0.05859
-0.01603
-0.12953
-0.13123
-0.16268
-0.22427
-0.27018
-0.28648
-0.29854
-0.31345
-0.33242
-0.32472
-0.32669
-0.34601
-0.35581
-0.35758
-0.34908
-0.35623
-0.39329
-0.40221
-0.38714
-0.37952
-0.41951
-0.42614
-0.39233
-0.39826
-0.41517
-0.44335
-0.44980
-0.45141
-0.46218
-0.48428
-0.49671
-0.49131
-0.50030
-0.51865
-0.52048
-0.51972
-0.54288
-0.57376
-0.57796
-0.57889
-0.59372
-0.62173
-0.61159
-0.58837
-0.60055
-0.63334
-0.61592
-0.57586
-0.55481
-0.55843
-0.54195
-0.49809
-0.45607
-0.43348
-0.42518
-0.38448
-0.34592
-0.30587
-0.29136
-0.24501
-0.22735
-0.21096
-0.20254
-0.18693
-0.17273
-0.17633
-0.18432
-0.16271
-0.14523
-0.15747
-0.18423
-0.18089
-0.16179
-0.15480
-0.18100
-0.18386
-0.16167
-0.15757
-0.16903
-0.18743
-0.17367
-0.17091
-0.18016
-0.18709
-0.17664
-0.15798
-0.17329
-0.20856
-0.19209
-0.17587
-0.17903
-0.20399
-0.18724
-0.16974
-0.17198
-0.19425
-0.18894
-0.18683
-0.18878
-0.19166
-0.20004
-0.17524
-0.17615
-0.19441
-0.19995
-0.18456
-0.16905
-0.19528
-0.20667
-0.18237
-0.16778
-0.17229
-0.17497
-0.17859
-0.16422
-0.15671
-0.16987
-0.15880
-0.16363
-0.15990
-0.17981
-0.17593
-0.14422
-0.13920
-0.16217
-0.17693
-0.16743
-0.15943
-0.17344
-0.17644
-0.17341
-0.16889
-0.17161
-0.18080
-0.17554
-0.16990
-0.17777
-0.19886
-0.17798
-0.15768
-0.14756
-0.17753
-0.19052
-0.16789
-0.15131
-0.16381
-0.16689
-0.14712
-0.13394
-0.13758
-0.14422
-0.11855
-0.10935
-0.11510
-0.14136
-0.11639
-0.08380
-0.09640
-0.11562
-0.11336
-0.09903
-0.10648
-0.15505
-0.14695
-0.13159
-0.12715
-0.12942
-0.14356
-0.14204
-0.15606
-0.17940
-0.18030
-0.17970
-0.18045
-0.18251
-0.18131
-0.14950
-0.15054
-0.18982
-0.20625
-0.17742
-0.14294
-0.15068
-0.16898
-0.15901
-0.14261
-0.12511
-0.13800
-0.14179
-0.12009
-0.11359
-0.13389
-0.07684
0.08768
0.26712
0.42596
0.59866
0.79646
1.06309
1.34418
1.62485
1.87812
2.01550
2.01234
1.93178
1.75311
1.33645
0.87275
0.59975
0.51945
0.49049
0.45594
0.37573
0.31104
0.26991
0.22782
0.17093
0.12950
0.08552
0.01820
-0.06346
-0.12235
-0.17256
-0.21397
-0.26391
-0.28839
-0.28589
-0.28475
-0.32361
-0.33698
-0.34734
-0.32265
-0.33404
-0.35706
-0.36761
-0.35740
-0.36243
-0.38693
-0.39020
-0.39075
-0.41040
-0.40988
-0.40074
-0.40103
-0.40662
-0.44587
-0.45440
-0.43497
-0.45059
-0.47638
-0.51376
-0.50780
-0.50486
-0.51924
-0.52826
-0.51332
-0.51550
-0.54326
-0.57949
-0.57266
-0.56861
-0.59944
-0.63441
-0.62706
-0.60901
-0.62950
-0.65921
-0.65065
-0.64334
-0.63763
-0.63048
-0.62012
-0.60549
-0.59431
-0.59001
-0.55131
-0.51162
-0.48104
-0.47035
-0.46004
-0.40330
-0.37093
-0.35323
-0.32656
-0.29659
-0.26538
-0.24281
-0.22093
-0.19793
-0.15248
-0.16276
-0.15770
-0.14866
-0.12237
-0.14531
-0.16516
-0.16167
-0.14441
-0.12324
-0.14642
-0.16235
-0.14344
-0.12778
-0.14261
-0.15633
-0.14331
-0.14416
-0.16055
-0.17084
-0.15014
-0.13600
-0.14052
-0.16849
-0.16441
-0.14026
-0.14651
-0.16095
-0.17174
-0.15495
-0.14823
-0.16417
-0.15338
-0.14389
-0.15386
-0.17163
-0.16679
-0.14759
-0.13301
-0.16807
-0.17203
-0.16515
-0.14940
-0.15491
-0.16357
-0.15935
-0.14071
-0.15888
-0.16584
-0.15145
-0.14217
-0.14569
-0.17048
-0.14392
-0.14484
-0.13624
-0.14782
-0.15491
-0.11864
-0.10421
-0.13268
-0.13047
-0.12360
-0.12860
-0.13093
-0.14185
-0.12819
-0.11859
-0.12685
-0.14247
-0.13097
-0.12319
-0.12976
-0.14076
-0.13031
-0.09194
-0.09734
-0.11369
-0.13341
-0.11587
-0.09214
-0.10850
-0.09616
-0.07821
-0.07019
-0.07539
-0.08829
-0.06399
-0.04741
-0.07237
-0.07489
-0.06026
-0.04589
-0.07830
-0.10962
-0.09343
-0.07376
-0.09553
-0.12356
-0.12361
-0.11138
-0.12216
-0.14845
-0.14936
-0.15905
-0.15545
-0.15444
-0.15403
-0.14904
-0.14768
-0.15562
-0.15631
-0.14562
-0.13014
-0.13595
-0.13479
-0.11097
-0.09575
-0.11987
-0.11565
-0.09574
-0.08018
-0.10404
-0.08939
0.08029
0.28180
0.38024
0.46421
0.63354
0.90346
1.20502
1.49228
1.80220
2.01885
2.02870
1.80687
1.34446
0.88768
0.63017
0.48556
0.40782
0.40315
0.40336
0.33029
0.26137
0.20765
0.16595
0.10565
0.04030
0.00139
-0.03612
-0.08490
-0.15092
-0.18727
-0.20533
-0.23732
-0.28058
-0.30094
-0.28481
-0.27679
-0.31182
-0.32987
-0.30265
-0.29899
-0.33346
-0.34579
-0.34590
-0.32020
-0.34486
-0.36081
-0.36426
-0.37349
-0.37161
-0.37980
-0.38979
-0.38664
-0.39176
-0.42249
-0.41200
-0.42162
-0.44113
-0.47009
-0.47425
-0.46241
-0.48646
-0.52737
-0.53196
-0.51530
-0.51133
-0.53921
-0.56727
-0.57818
-0.55321
-0.57404
-0.59947
-0.58150
-0.55376
-0.54302
-0.54588
-0.51862
-0.47836
-0.45858
-0.44996
-0.40359
-0.35796
-0.32293
-0.29679
-0.25956
-0.20832
-0.18205
-0.19384
-0.17254
-0.15050
-0.12318
-0.12568
-0.14279
-0.12470
-0.11280
-0.11251
-0.13549
-0.13540
-0.11524
-0.13696
-0.13649
-0.13227
-0.12820
-0.12454
-0.14629
-0.13942
-0.11568
-0.12765
-0.15375
-0.15366
-0.12688
-0.12678
-0.14140
-0.16382
-0.15079
-0.13337
-0.13592
-0.14427
-0.15006
-0.12523
-0.13311
-0.14858
-0.13156
-0.12383
-0.15252
-0.15794
-0.13777
-0.13576
-0.13775
-0.15268
-0.14808
-0.12008
-0.11836
-0.13464
-0.14455
-0.11469
-0.11001
-0.12513
-0.13589
-0.12241
-0.10838
-0.11706
-0.11892
-0.10631
-0.11203
-0.12347
-0.13885
-0.11981
-0.10817
-0.13356
-0.14705
-0.13313
-0.11606
-0.12376
-0.15371
-0.14741
-0.13215
-0.11756
-0.12983
-0.13390
-0.11880
-0.10882
-0.12483
-0.12884
-0.11965
-0.08583
-0.09566
-0.09666
-0.06705
-0.06200
-0.07089
-0.06485
-0.05472
-0.03358
-0.04580
-0.05722
-0.04282
-0.02926
-0.06319
-0.09414
-0.09951
-0.07730
-0.07032
-0.09396
-0.13276
-0.11993
-0.11224
-0.14139
-0.15440
-0.16104
-0.13623
-0.13738
-0.14138
-0.13678
-0.13564
-0.14784
-0.15936
-0.14556
-0.11469
-0.11493
-0.12755
-0.09840
-0.08806
-0.08424
-0.09600
-0.08788
-0.04722
0.02351
0.17460
0.34477
0.50181
0.65694
0.84558
1.11150
1.35863
1.57075
1.76792
1.97726
2.08023
2.00448
1.65882
1.13612
0.74657
0.59588
0.53190
0.48496
0.44083
0.40697
0.34153
0.27361
0.20386
0.14756
0.08480
-0.00769
-0.06559
-0.09826
-0.15829
-0.22398
-0.25073
-0.26314
-0.26083
-0.27269
-0.30869
-0.30373
-0.29742
-0.32148
-0.33702
-0.32640
-0.30385
-0.33381
-0.36043
-0.35375
-0.35542
-0.37480
-0.37762
-0.37572
-0.37054
-0.37622
-0.41399
-0.41514
-0.39911
-0.40933
-0.45677
-0.46157
-0.43913
-0.43626
-0.46980
-0.49807
-0.49227
-0.48983
-0.50795
-0.54115
-0.54483
-0.53516
-0.54863
-0.57620
-0.58386
-0.56976
-0.55377
-0.57307
-0.57158
-0.56186
-0.53520
-0.52411
-0.49702
-0.43925
-0.42957
-0.40305
-0.36971
-0.31564
-0.30064
-0.29643
-0.26591
-0.21979
-0.17710
-0.19435
-0.20115
-0.17348
-0.13321
-0.13743
-0.15881
-0.15498
-0.14288
-0.14238
-0.15750
-0.15964
-0.14535
-0.15568
-0.16871
-0.15165
-0.12958
-0.14499
-0.15984
-0.14719
-0.13000
-0.13825
-0.16403
-0.16914
-0.15587
-0.13870
-0.14949
-0.18145
-0.18354
-0.15827
-0.16027
-0.19715
-0.19582
-0.16549
-0.17015
-0.18416
-0.16986
-0.15844
-0.17348
-0.19404
-0.18056
-0.16474
-0.17238
-0.19801
-0.18339
-0.14942
-0.14220
-0.17349
-0.19472
-0.18171
-0.16902
-0.15889
-0.18141
-0.17351
-0.14810
-0.15978
-0.17290
-0.17728
-0.16794
-0.17173
-0.17228
-0.15757
-0.14265
-0.13488
-0.14860
-0.11626
-0.10396
-0.08270
-0.06240
-0.04240
0.00217
0.06355
0.09536
0.15444
0.28480
0.43180
0.55998
0.60545
0.69046
0.77947
0.85593
0.91918
0.97349
1.00300
0.97933
0.90445
0.70434
0.21614
-0.47065
-1.06830
-1.40697
-1.60035
-1.70490
-1.71203
-1.64800
-1.58954
-1.51089
-1.40099
-1.33291
-1.29906
-1.22882
-1.17514
-1.14064
-1.07907
-1.02684
-1.02713
-1.03559
-1.01969
-0.95846
-0.87392
-0.78325
-0.65383
-0.51551
-0.38978
-0.29361
-0.24693
-0.18913
-0.14811
-0.11741
-0.10136
-0.06540
-0.05108
-0.03457
-0.01717
0.01249
0.05648
0.07280
0.07466
0.09190
0.10998
0.13946
0.18242
0.22045
0.25895
0.28904
0.32033
0.37356
0.42223
0.46289
0.48981
0.52651
0.57373
0.61439
0.65129
0.67851
0.73753
0.78984
0.80053
0.81449
0.86030
0.89055
0.87952
0.85558
0.86292
0.88986
0.86515
0.80974
0.79638
0.78174
0.74273
0.68247
0.63184
0.62203
0.57754
0.50677
0.44149
0.40059
0.33868
0.26785
0.20416
0.15934
0.12321
0.08760
0.02033
-0.00183
-0.00371
-0.03070
-0.05665
-0.06568
-0.07098
-0.08928
-0.11874
-0.10769
-0.09099
-0.11818
-0.13072
-0.13215
-0.10407
-0.12013
-0.15116
-0.16652
-0.13957
-0.13885
-0.15517
-0.17641
-0.16028
-0.14864
-0.16325
-0.17513
-0.16930
-0.14117
-0.14800
-0.17882
-0.18676
-0.17936
-0.17783
-0.16877
-0.16709
-0.18039
-0.18292
-0.18912
-0.17240
-0.16158
-0.17840
-0.20181
-0.17782
-0.15597
-0.15374
-0.16840
-0.18526
-0.17405
-0.16794
-0.18382
-0.20339
-0.19468
-0.17395
-0.17098
-0.19106
-0.19390
-0.17309
-0.17042
-0.19305
-0.20032
-0.17506
-0.17735
-0.18110
-0.17879
-0.17035
-0.17471
-0.20099
-0.21124
-0.18937
-0.17810
-0.19028
-0.19559
-0.17602
-0.17578
-0.20611
-0.22153
-0.18828
-0.17022
-0.18307
-0.21130
-0.20301
-0.17780
-0.18368
-0.20733
-0.20335
-0.16926
-0.16000
-0.17960
-0.18657
-0.16911
-0.16263
-0.18802
-0.18488
-0.17243
-0.16891
-0.17167
-0.18605
-0.17481
-0.16167
-0.16386
-0.15733
-0.12184
-0.10004
-0.11678
-0.12778
-0.11079
-0.09166
-0.09926
-0.10264
-0.09236
-0.07104
-0.08922
-0.11109
-0.10454
-0.08950
-0.09045
-0.14952
-0.16691
-0.13935
-0.15061
-0.17771
-0.18793
-0.18167
-0.17628
-0.16174
-0.18408
-0.17953
-0.17206
-0.17595
-0.18131
-0.17405
-0.15339
-0.16513
-0.17191
-0.15375
-0.12849
-0.12987
-0.15225
-0.13505
-0.03072
0.14183
0.28312
0.45861
0.66409
0.92122
1.21475
1.51859
1.83269
2.03250
2.08375
2.04573
1.86764
1.37707
0.78637
0.48253
0.41461
0.38972
0.32991
0.23538
0.18286
0.13822
0.08669
0.04738
0.01210
-0.01263
-0.09373
-0.16530
-0.20783
-0.23167
-0.27026
-0.33025
-0.34338
-0.31151
-0.31132
-0.34630
-0.39764
-0.39318
-0.36514
-0.37978
-0.40016
-0.39951
-0.37986
-0.39601
-0.42284
-0.42016
-0.39412
-0.40116
-0.42518
-0.43879
-0.44138
-0.44540
-0.47483
-0.46529
-0.47545
-0.48875
-0.50715
-0.51885
-0.49796
-0.52255
-0.56281
-0.57554
-0.55678
-0.57733
-0.60226
-0.62612
-0.61650
-0.60189
-0.63600
-0.64920
-0.64461
-0.60841
-0.59930
-0.61272
-0.58808
-0.52541
-0.49167
-0.47626
-0.45399
-0.41173
-0.35933
-0.33867
-0.31957
-0.27564
-0.22270
-0.19973
-0.19826
-0.16513
-0.15423
-0.14155
-0.15042
-0.15653
-0.13704
-0.14368
-0.15817
-0.15403
-0.13565
-0.15335
-0.17588
-0.16339
-0.15183
-0.15918
-0.18621
-0.18119
-0.16414
-0.14599
-0.17447
-0.18659
-0.15397
-0.14143
-0.17551
-0.18563
-0.15753
-0.14377
-0.15231
-0.18000
-0.15996
-0.13745
-0.14583
-0.15250
-0.16612
-0.15524
-0.15165
-0.14532
-0.14776
-0.13415
-0.12898
-0.13613
-0.14075
-0.12264
-0.12170
-0.15000
-0.16219
-0.14178
-0.13358
-0.15734
-0.15884
-0.14512
-0.13129
-0.14820
-0.16430
-0.16305
-0.14089
-0.16403
-0.18335
-0.16954
-0.14325
-0.15486
-0.16729
-0.15221
-0.13102
-0.10772
-0.11816
-0.10064
-0.07735
-0.06295
-0.07889
-0.08759
-0.07140
-0.05435
-0.07172
-0.07506
-0.06177
-0.06409
-0.07643
-0.10719
-0.08788
-0.08236
-0.10453
-0.14179
-0.14433
-0.14108
-0.15660
-0.18979
-0.18368
-0.16183
-0.14995
-0.16909
-0.18477
-0.16963
-0.17054
-0.17046
-0.18727
-0.17078
-0.16225
-0.16033
-0.15536
-0.14283
-0.12443
-0.13963
-0.15333
-0.12799
-0.03184
0.09251
0.22689
0.38927
0.55891
0.72540
0.94476
1.21764
1.49750
1.71955
1.84781
1.90801
1.93282
1.77791
1.36701
0.92718
0.66437
0.53353
0.45028
0.40949
0.37647
0.33501
0.26284
0.18635
0.13947
0.12572
0.06947
-0.00900
-0.07342
-0.10449
-0.15153
-0.22081
-0.25770
-0.28576
-0.31160
-0.34144
-0.34942
-0.33833
-0.35691
-0.37875
-0.39088
-0.37153
-0.37091
-0.40628
-0.43023
-0.41079
-0.39743
-0.43555
-0.43613
-0.43260
-0.41886
-0.42641
-0.44860
-0.44842
-0.44721
-0.45483
-0.47104
-0.48269
-0.47582
-0.48791
-0.52718
-0.53403
-0.51332
-0.50347
-0.54001
-0.56560
-0.56239
-0.56232
-0.57841
-0.60315
-0.60425
-0.61335
-0.62692
-0.64061
-0.64427
-0.63213
-0.64344
-0.66659
-0.63827
-0.59886
-0.59761
-0.60538
-0.58719
-0.54160
-0.50684
-0.49586
-0.47942
-0.44235
-0.38854
-0.37117
-0.35072
-0.31263
-0.29250
-0.28698
-0.26864
-0.22225
-0.20214
-0.20538
-0.22617
-0.19369
-0.14582
-0.16521
-0.19409
-0.17915
-0.15747
-0.15599
-0.17059
-0.17547
-0.17022
-0.17738
-0.17766
-0.17603
-0.15661
-0.16577
-0.18211
-0.19607
-0.16211
-0.15266
-0.17188
-0.18002
-0.17912
-0.16265
-0.17617
-0.18925
-0.18814
-0.15893
-0.17333
-0.20123
-0.19574
-0.18596
-0.18016
-0.22452
-0.20366
-0.16316
-0.15874
-0.19858
-0.21006
-0.17446
-0.17190
-0.16809
-0.18354
-0.17122
-0.16520
-0.16081
-0.18290
-0.18572
-0.16681
-0.17787
-0.19137
-0.17672
-0.16191
-0.16835
-0.19194
-0.18356
-0.15801
-0.15493
-0.16471
-0.18591
-0.17151
-0.15515
-0.17330
-0.16724
-0.15118
-0.14485
-0.17117
-0.17367
-0.14944
-0.13728
-0.14242
-0.14696
-0.12434
-0.08159
-0.08428
-0.10814
-0.11047
-0.09329
-0.10867
-0.10922
-0.09957
-0.06252
-0.06202
-0.07610
-0.07299
-0.06587
-0.05852
-0.09371
-0.09327
-0.06683
-0.05867
-0.07462
-0.09367
-0.08975
-0.09855
-0.13612
-0.13687
-0.14560
-0.14084
-0.15266
-0.15855
-0.13671
-0.11273
-0.11654
-0.15460
-0.14951
-0.13729
-0.14296
-0.14583
-0.15685
-0.13578
-0.12983
-0.14445
-0.14125
-0.11724
-0.10214
-0.12647
-0.15039
-0.13071
-0.10510
-0.07312
0.00628
0.15372
0.29898
0.41048
0.53236
0.70217
0.90402
1.12825
1.33822
1.57254
1.78829
1.86970
1.87534
1.83363
1.72501
1.49299
1.13301
0.79657
0.57732
0.46578
0.39814
0.35788
0.35010
0.31636
0.23611
0.15903
0.11609
0.10646
0.07769
0.03253
-0.00077
-0.05612
-0.10349
-0.15704
-0.20999
-0.22779
-0.28146
-0.31733
-0.33966
-0.33041
-0.32326
-0.35724
-0.37415
-0.36742
-0.35947
-0.36495
-0.38404
-0.39150
-0.37735
-0.39591
-0.40784
-0.41204
-0.40908
-0.42486
-0.44679
-0.44769
-0.41320
-0.41344
-0.45545
-0.46616
-0.44753
-0.45804
-0.48777
-0.50464
-0.49921
-0.49276
-0.52031
-0.52689
-0.52455
-0.54242
-0.56710
-0.59002
-0.57291
-0.57291
-0.61033
-0.64254
-0.63567
-0.61291
-0.63295
-0.66526
-0.65463
-0.64080
-0.64316
-0.62844
-0.60553
-0.58229
-0.57869
-0.56006
-0.51384
-0.45996
-0.42091
-0.40302
-0.38562
-0.33221
-0.27905
-0.28137
-0.26113
-0.22775
-0.19845
-0.19032
-0.18654
-0.17425
-0.15553
-0.14360
-0.14916
-0.13597
-0.12093
-0.13452
-0.14122
-0.12632
-0.09404
-0.07661
-0.06932
-0.02713
0.07360
0.19981
0.32050
0.45704
0.63164
0.80553
0.95145
1.06725
1.18265
1.26686
1.30080
1.23859
1.03808
0.61818
0.07838
-0.40095
-0.76222
-1.02256
-1.21224
-1.37119
-1.46891
-1.56164
-1.66810
-1.76333
-1.83201
-1.86776
-1.90310
-1.93829
-1.96695
-1.91623
-1.82580
-1.68045
-1.45372
-1.23796
-1.08408
-1.00327
-0.92632
-0.85849
-0.79712
-0.74915
-0.74132
-0.71653
-0.62203
-0.53487
-0.48821
-0.41054
-0.32779
-0.27147
-0.21742
-0.17085
-0.09078
-0.04527
-0.05660
-0.02649
0.04017
0.08173
0.08559
0.10068
0.13322
0.18820
0.21754
0.23739
0.26957
0.32648
0.33638
0.35131
0.39790
0.47552
0.50525
0.51128
0.55664
0.62338
0.66333
0.68810
0.71646
0.75443
0.80264
0.83523
0.88550
0.92131
0.94781
0.94911
0.95878
1.01809
1.05084
1.07024
1.07417
1.09154
1.13389
1.14801
1.13383
1.13745
1.14536
1.12995
1.12119
1.11688
1.11664
1.09692
1.04440
1.00584
0.99706
0.96832
0.90756
0.85437
0.82936
0.78693
0.72788
0.67877
0.63939
0.58708
0.54083
0.49630
0.45482
0.42171
0.36526
0.28929
0.24467
0.22105
0.18112
0.11764
0.09502
0.06458
0.03944
0.00703
0.00344
0.01265
-0.01532
-0.05181
-0.08164
-0.06288
-0.04639
-0.07284
-0.11738
-0.10591
-0.09970
-0.12201
-0.14076
-0.12674
-0.11463
-0.14047
-0.14532
-0.14450
-0.13423
-0.15107
-0.16292
-0.16567
-0.16175
-0.14947
-0.17241
-0.18368
-0.15782
-0.16084
-0.18806
-0.21369
-0.18788
-0.17040
-0.19116
-0.21198
-0.20037
-0.19808
-0.22230
-0.21076
-0.19966
-0.19673
-0.21835
-0.23978
-0.21255
-0.19510
-0.20099
-0.22236
-0.22889
-0.22480
-0.21833
-0.23326
-0.25331
-0.22894
-0.23722
-0.25366
-0.24933
-0.23079
-0.22496
-0.23920
-0.26004
-0.24911
-0.23247
-0.24999
-0.26557
-0.26250
-0.24748
-0.25272
-0.27292
-0.25609
-0.24723
-0.25253
-0.27516
-0.26476
-0.22757
-0.24411
-0.26105
-0.26444
-0.26262
-0.24781
-0.26264
-0.27071
-0.25674
-0.23759
-0.24806
-0.26536
-0.25399
-0.25501
-0.28140
-0.27474
-0.25025
-0.23309
-0.24258
-0.26708
-0.25529
-0.24286
-0.23675
-0.24802
-0.25739
-0.23197
-0.23405
-0.25901
-0.25595
-0.23720
-0.24157
-0.25431
-0.24724
-0.23014
-0.22156
-0.25237
-0.25243
-0.23382
-0.22209
-0.24310
-0.25536
-0.23766
-0.22831
-0.22451
-0.23635
-0.25107
-0.21893
-0.22019
-0.23620
-0.23559
-0.21895
-0.21398
-0.23144
-0.23232
-0.21325
-0.21850
-0.23302
-0.23061
-0.20292
-0.18844
-0.21737
-0.22323
-0.20019
-0.20250
-0.21911
-0.24615
-0.22403
-0.19396
-0.20054
-0.21841
-0.20869
-0.18747
-0.20039
-0.20456
-0.20936
-0.20061
-0.17806
-0.18903
-0.19462
-0.13924
-0.13258
-0.15379
-0.14487
-0.11619
-0.10261
-0.12715
-0.12293
-0.09937
-0.07948
-0.10797
-0.14151
-0.13114
-0.10442
-0.10684
-0.11553
-0.12564
-0.12729
-0.12798
-0.15202
-0.16261
-0.17273
-0.18352
-0.20868
-0.19586
-0.16181
-0.15610
-0.18986
-0.20382
-0.18249
-0.16615
-0.17823
-0.19994
-0.18074
-0.17014
-0.18317
-0.17214
-0.18152
-0.16549
-0.17348
-0.17281
-0.15429
-0.04999
0.08460
0.22125
0.35329
0.53060
0.70308
0.92665
1.20415
1.46689
1.69704
1.85764
1.97413
2.03289
1.98312
1.72717
1.25847
0.84869
0.63604
0.52005
0.45112
0.42933
0.38948
0.31188
0.22454
0.18549
0.17037
0.12908
0.04917
-0.00540
-0.04057
-0.09853
-0.14973
-0.20271
-0.23053
-0.26867
-0.31206
-0.35353
-0.34461
-0.33456
-0.36321
-0.39495
-0.38971
-0.36593
-0.39787
-0.42506
-0.42215
-0.40579
-0.41166
-0.42357
-0.42460
-0.42661
-0.44226
-0.46692
-0.45265
-0.43918
-0.46248
-0.47029
-0.48349
-0.46824
-0.48333
-0.51188
-0.52428
-0.51442
-0.50874
-0.55330
-0.56510
-0.56789
-0.56224
-0.58021
-0.60067
-0.61664
-0.61400
-0.64165
-0.64338
-0.65690
-0.65002
-0.67746
-0.69176
-0.66381
-0.63888
-0.61841
-0.63795
-0.60505
-0.56294
-0.52976
-0.51320
-0.48392
-0.42058
-0.36820
-0.35460
-0.33124
-0.28365
-0.24357
-0.22468
-0.21678
-0.18590
-0.14872
-0.13913
-0.14771
-0.14236
-0.13531
-0.12986
-0.11849
-0.12595
-0.11766
-0.13182
-0.15340
-0.15580
-0.13480
-0.13249
-0.15369
-0.17129
-0.14992
-0.15079
-0.17729
-0.18640
-0.16503
-0.15336
-0.16912
-0.19079
-0.18389
-0.15661
-0.15994
-0.16792
-0.18637
-0.16471
-0.15953
-0.15727
-0.14741
-0.16422
-0.16752
-0.17559
-0.17071
-0.16426
-0.15516
-0.17748
-0.17585
-0.14521
-0.16148
-0.16824
-0.18064
-0.17472
-0.14829
-0.17352
-0.19237
-0.18645
-0.15293
-0.15118
-0.16823
-0.15379
-0.14306
-0.13822
-0.13223
-0.12811
-0.11680
-0.11191
-0.12015
-0.11677
-0.10078
-0.09527
-0.09144
-0.07866
-0.07247
-0.07939
-0.10746
-0.12589
-0.09861
-0.07002
-0.11507
-0.15519
-0.13591
-0.11639
-0.12779
-0.18323
-0.21307
-0.18451
-0.17033
-0.19890
-0.18985
-0.17717
-0.19012
-0.22438
-0.21856
-0.20814
-0.19728
-0.19485
-0.19715
-0.20216
-0.18431
-0.19411
-0.19826
-0.18611
-0.16876
-0.18796
-0.15164
0.02427
0.20954
0.33234
0.44746
0.59692
0.80243
1.05771
1.34411
1.63148
1.84439
1.87419
1.69358
1.33180
0.88641
0.54387
0.36777
0.28035
0.28141
0.31135
0.25234
0.19224
0.13908
0.10894
0.03828
-0.01732
-0.04575
-0.07010
-0.13034
-0.19229
-0.21973
-0.24927
-0.29459
-0.35347
-0.37113
-0.36586
-0.36937
-0.39567
-0.41665
-0.39715
-0.38424
-0.43379
-0.43812
-0.42293
-0.41270
-0.43096
-0.45199
-0.43529
-0.41796
-0.43103
-0.46163
-0.46577
-0.45175
-0.46769
-0.48942
-0.48735
-0.48225
-0.50271
-0.51871
-0.52330
-0.53317
-0.54459
-0.57036
-0.57919
-0.57866
-0.58172
-0.61910
-0.63653
-0.61196
-0.61605
-0.63899
-0.67061
-0.64144
-0.61948
-0.63260
-0.64414
-0.63172
-0.60003
-0.58348
-0.56656
-0.54270
-0.51729
-0.49697
-0.48149
-0.42814
-0.37187
-0.31684
-0.31454
-0.30241
-0.27762
-0.25889
-0.25446
-0.23904
-0.22156
-0.20967
-0.23520
-0.25541
-0.21696
-0.19997
-0.21608
-0.23799
-0.21171
-0.20029
-0.21140
-0.23974
-0.24199
-0.22107
-0.23083
-0.25256
-0.24819
-0.21433
-0.21222
-0.24845
-0.26030
-0.21464
-0.19339
-0.22699
-0.24135
-0.22048
-0.20244
-0.20853
-0.22910
-0.21906
-0.20443
-0.21774
-0.24193
-0.23882
-0.21239
-0.20524
-0.21658
-0.22846
-0.21818
-0.19890
-0.21844
-0.22446
-0.21393
-0.20818
-0.20942
-0.20450
-0.20580
-0.19671
-0.18667
-0.16168
-0.14935
-0.13514
-0.14930
-0.15272
-0.12869
-0.12373
-0.13773
-0.14137
-0.11421
-0.09558
-0.11846
-0.13029
-0.12394
-0.10621
-0.13255
-0.16620
-0.18582
-0.16469
-0.17737
-0.21338
-0.22112
-0.21051
-0.19517
-0.20611
-0.21980
-0.21702
-0.20642
-0.20850
-0.22107
-0.22642
-0.20800
-0.22109
-0.23151
-0.20931
-0.19126
-0.19658
-0.19856
-0.15110
0.00731
0.17294
0.31353
0.43756
0.58907
0.75904
1.01907
1.33665
1.69059
1.93205
1.96888
1.85340
1.51571
0.99651
0.53610
0.30502
0.24024
0.24697
0.24701
0.20644
0.18234
0.13264
0.06711
0.01527
-0.01489
-0.04376
-0.11533
-0.18544
-0.22920
-0.23515
-0.27519
-0.34103
-0.37414
-0.38004
-0.38249
-0.40470
-0.43144
-0.42161
-0.40515
-0.43130
-0.46204
-0.45395
-0.44611
-0.46027
-0.45420
-0.45830
-0.45340
-0.47557
-0.47981
-0.48169
-0.46644
-0.49072
-0.52235
-0.51966
-0.50182
-0.50838
-0.54612
-0.55130
-0.54075
-0.55162
-0.60667
-0.61882
-0.60344
-0.61525
-0.62674
-0.65224
-0.65873
-0.65028
-0.66805
-0.69431
-0.68725
-0.66499
-0.65264
-0.64911
-0.64308
-0.60919
-0.59411
-0.58801
-0.55250
-0.50857
-0.47035
-0.45971
-0.40728
-0.34841
-0.33035
-0.30915
-0.29272
-0.24086
-0.21948
-0.23745
-0.25094
-0.23256
-0.18968
-0.20580
-0.23573
-0.21917
-0.19857
-0.19972
-0.23121
-0.22681
-0.20006
-0.19836
-0.21560
-0.21971
-0.22517
-0.22667
-0.22747
-0.24111
-0.23738
-0.23540
-0.22959
-0.24671
-0.23707
-0.21993
-0.22969
-0.23662
-0.21881
-0.21885
-0.24851
-0.25916
-0.23445
-0.20402
-0.22601
-0.25089
-0.22547
-0.20273
-0.21197
-0.24207
-0.25188
-0.22698
-0.21922
-0.23981
-0.24858
-0.23014
-0.21456
-0.23108
-0.24332
-0.24239
-0.21648
-0.22522
-0.23822
-0.21178
-0.18352
-0.17798
-0.16910
-0.14640
-0.13236
-0.13856
-0.15558
-0.14198
-0.11878
-0.12129
-0.15619
-0.14659
-0.12442
-0.13764
-0.15980
-0.18290
-0.16775
-0.16851
-0.19523
-0.23727
-0.22760
-0.20563
-0.22971
-0.26295
-0.24179
-0.21049
-0.22724
-0.27430
-0.25905
-0.22957
-0.23156
-0.25061
-0.24803
-0.21966
-0.24335
-0.23181
-0.21755
-0.21162
-0.22669
-0.22517
-0.10326
0.07888
0.24414
0.36411
0.50074
0.66348
0.85535
1.12213
1.43725
1.75465
1.94785
1.92890
1.70800
1.27590
0.83861
0.55987
0.41009
0.37358
0.36214
0.30969
0.24165
0.17810
0.11949
0.05782
-0.00030
-0.08295
-0.12968
-0.18149
-0.26451
-0.31112
-0.31451
-0.33614
-0.39351
-0.45132
-0.42023
-0.42921
-0.45194
-0.47575
-0.47587
-0.45013
-0.47649
-0.50376
-0.50295
-0.48591
-0.48415
-0.51044
-0.50902
-0.51271
-0.50977
-0.53345
-0.54835
-0.53926
-0.54438
-0.56788
-0.60080
-0.59466
-0.57249
-0.60230
-0.63810
-0.62346
-0.62007
-0.64887
-0.68554
-0.70760
-0.69130
-0.70998
-0.74650
-0.75845
-0.74801
-0.73549
-0.75426
-0.76198
-0.74302
-0.74725
-0.75287
-0.72510
-0.70051
-0.67664
-0.65993
-0.62496
-0.58646
-0.56079
-0.55516
-0.53516
-0.49116
-0.43526
-0.41573
-0.40047
-0.35631
-0.32206
-0.31201
-0.30867
-0.28707
-0.27206
-0.27127
-0.30140
-0.30155
-0.25384
-0.24244
-0.26784
-0.27295
-0.25389
-0.24460
-0.24975
-0.27555
-0.26604
-0.25680
-0.26712
-0.27946
-0.27997
-0.24909
-0.27214
-0.27950
-0.26882
-0.26597
-0.27899
-0.30420
-0.27747
-0.25554
-0.26924
-0.30160
-0.31229
-0.26692
-0.27407
-0.29923
-0.31671
-0.29496
-0.27434
-0.28485
-0.28732
-0.29480
-0.28702
-0.28797
-0.28560
-0.28936
-0.28182
-0.28972
-0.29582
-0.27816
-0.27325
-0.27416
-0.29352
-0.28194
-0.26414
-0.26594
-0.28076
-0.28619
-0.26210
-0.23467
-0.23179
-0.24115
-0.22217
-0.22143
-0.22894
-0.21372
-0.20296
-0.18852
-0.18522
-0.18191
-0.16683
-0.16496
-0.17958
-0.18652
-0.17097
-0.16051
-0.18505
-0.21901
-0.20698
-0.18594
-0.22348
-0.26186
-0.28120
-0.26288
-0.24789
-0.24834
-0.24001
-0.23758
-0.24999
-0.27281
-0.27649
-0.24895
-0.24341
-0.25375
-0.26397
-0.26664
-0.24048
-0.24512
-0.24476
-0.23541
-0.21567
-0.12503
0.04771
0.24149
0.41254
0.58441
0.81470
1.11566
1.36758
1.55883
1.74528
1.91466
1.94231
1.73885
1.27450
0.71649
0.37377
0.30137
0.27073
0.21392
0.15535
0.11802
0.07113
0.01026
-0.03337
-0.04864
-0.11239
-0.18643
-0.25932
-0.28567
-0.33815
-0.38476
-0.42800
-0.42708
-0.44727
-0.46048
-0.46441
-0.43617
-0.43415
-0.46832
-0.48645
-0.47375
-0.45126
-0.47774
-0.50888
-0.50838
-0.48138
-0.49413
-0.51145
-0.50418
-0.50388
-0.52827
-0.54452
-0.54158
-0.54766
-0.55829
-0.60512
-0.59037
-0.58933
-0.60113
-0.64400
-0.65835
-0.63075
-0.62644
-0.67024
-0.68931
-0.68810
-0.68009
-0.69006
-0.72856
-0.71748
-0.69714
-0.71004
-0.71767
-0.71226
-0.67206
-0.65991
-0.65449
-0.62035
-0.58156
-0.55510
-0.53360
-0.47655
-0.42165
-0.40203
-0.39648
-0.36393
-0.30963
-0.28930
-0.29600
-0.29922
-0.27207
-0.24177
-0.25516
-0.27143
-0.25613
-0.23133
-0.24670
-0.25273
-0.26496
-0.24850
-0.24246
-0.25781
-0.24629
-0.23162
-0.24094
-0.27088
-0.27118
-0.23451
-0.24566
-0.27578
-0.27113
-0.25690
-0.24377
-0.26091
-0.27495
-0.26767
-0.25595
-0.26902
-0.28358
-0.27436
-0.26625
-0.29035
-0.27581
-0.26984
-0.27214
-0.27724
-0.27631
-0.26218
-0.24598
-0.25071
-0.27585
-0.27332
-0.25626
-0.23266
-0.25151
-0.26400
-0.24298
-0.22680
-0.23660
-0.24586
-0.22986
-0.23135
-0.25167
-0.25330
-0.23299
-0.22329
-0.23693
-0.24255
-0.20403
-0.17610
-0.18739
-0.20092
-0.19961
-0.17626
-0.17110
-0.19617
-0.19540
-0.17481
-0.16766
-0.17674
-0.18609
-0.17350
-0.18406
-0.19031
-0.20054
-0.19546
-0.18755
-0.20906
-0.24948
-0.24275
-0.23932
-0.25808
-0.29399
-0.28081
-0.24819
-0.24864
-0.28816
-0.29256
-0.27716
-0.27365
-0.26929
-0.28268
-0.26093
-0.26316
-0.27716
-0.27300
-0.24999
-0.24144
-0.26471
-0.25178
-0.13945
0.00570
0.11152
0.19137
0.31142
0.51008
0.72269
0.96974
1.30384
1.64718
1.88956
1.94791
1.83942
1.48196
0.97130
0.58605
0.40414
0.31350
0.24352
0.19895
0.17424
0.13556
0.07281
-0.00281
-0.06281
-0.09314
-0.13681
-0.21051
-0.27731
-0.29991
-0.30938
-0.36038
-0.41409
-0.43679
-0.42976
-0.45812
-0.48003
-0.48732
-0.46072
-0.46411
-0.50662
-0.49902
-0.48945
-0.48688
-0.50605
-0.51742
-0.51136
-0.52395
-0.54989
-0.55555
-0.53996
-0.54126
-0.56252
-0.58844
-0.56418
-0.55498
-0.58191
-0.61514
-0.62302
-0.61827
-0.62755
-0.65289
-0.66918
-0.64488
-0.66563
-0.69335
-0.71030
-0.69018
-0.69724
-0.70730
-0.70986
-0.69793
-0.69246
-0.71661
-0.70100
-0.65918
-0.62796
-0.62884
-0.62071
-0.57404
-0.52912
-0.51735
-0.49516
-0.43884
-0.38945
-0.36589
-0.36362
-0.34623
-0.29161
-0.28464
-0.29619
-0.29261
-0.27552
-0.27731
-0.28054
-0.28291
-0.26753
-0.26075
-0.27004
-0.27861
-0.26815
-0.26926
-0.28071
-0.28257
-0.26508
-0.26086
-0.29464
-0.30695
-0.30406
-0.27389
-0.27916
-0.31168
-0.31911
-0.29214
-0.29844
-0.32404
-0.32207
-0.30723
-0.30017
-0.30983
-0.30597
-0.28992
-0.30121
-0.33199
-0.31970
-0.30293
-0.29045
-0.30824
-0.31514
-0.29727
-0.26453
-0.27063
-0.30573
-0.31419
-0.28805
-0.27707
-0.29699
-0.29625
-0.27644
-0.27546
-0.30070
-0.30361
-0.28606
-0.27499
-0.28447
-0.28455
-0.25766
-0.25650
-0.27722
-0.25789
-0.23730
-0.20773
-0.20759
-0.22050
-0.20875
-0.20892
-0.21512
-0.21978
-0.20675
-0.19428
-0.19777
-0.22288
-0.22582
-0.20965
-0.21138
-0.23034
-0.23871
-0.23733
-0.25131
-0.28650
-0.30079
-0.27362
-0.26336
-0.29995
-0.32949
-0.31526
-0.29176
-0.28714
-0.30267
-0.31891
-0.30744
-0.31407
-0.32952
-0.31354
-0.30230
-0.31254
-0.32110
-0.30034
-0.28129
-0.26941
-0.29478
-0.29417
-0.25075
-0.15298
-0.01185
0.14231
0.29671
0.45160
0.57145
0.68712
0.86541
1.04911
1.31961
1.59826
1.81860
1.88522
1.78370
1.48908
1.06005
0.70482
0.46158
0.32727
0.26493
0.25270
0.21815
0.16370
0.12138
0.06622
0.00729
-0.06331
-0.10081
-0.12034
-0.17395
-0.26761
-0.32709
-0.35041
-0.36892
-0.42051
-0.46663
-0.46450
-0.46074
-0.49218
-0.52767
-0.51674
-0.49661
-0.51150
-0.52360
-0.53471
-0.51098
-0.53700
-0.55527
-0.55079
-0.53914
-0.53891
-0.56815
-0.58690
-0.57266
-0.54867
-0.58096
-0.61473
-0.61580
-0.60978
-0.61185
-0.62393
-0.64116
-0.65317
-0.67958
-0.70515
-0.68602
-0.68170
-0.70324
-0.72965
-0.74951
-0.72314
-0.73641
-0.76837
-0.78577
-0.80046
-0.78755
-0.78248
-0.78285
-0.78854
-0.79217
-0.78953
-0.78335
-0.76150
-0.72484
-0.71375
-0.70824
-0.67830
-0.63060
-0.59701
-0.55794
-0.54799
-0.49471
-0.46953
-0.46842
-0.42588
-0.38912
-0.38589
-0.39569
-0.36879
-0.33189
-0.30677
-0.31710
-0.34167
-0.30807
-0.28951
-0.28915
-0.31266
-0.29772
-0.27736
-0.29355
-0.29871
-0.29354
-0.27594
-0.28995
-0.32581
-0.31106
-0.29161
-0.28380
-0.30924
-0.31327
-0.29810
-0.30490
-0.31078
-0.31281
-0.27444
-0.29935
-0.32670
-0.32366
-0.30341
-0.30024
-0.30890
-0.33853
-0.33843
-0.31313
-0.32349
-0.34274
-0.33992
-0.32867
-0.34007
-0.34715
-0.31406
-0.30720
-0.32410
-0.34181
-0.33272
-0.29772
-0.28968
-0.32285
-0.35336
-0.32136
-0.30232
-0.30631
-0.31133
-0.28819
-0.27550
-0.31427
-0.33014
-0.30301
-0.27651
-0.29207
-0.31361
-0.30638
-0.29116
-0.29269
-0.29801
-0.26763
-0.23521
-0.22303
-0.23718
-0.22443
-0.20827
-0.23129
-0.25743
-0.24817
-0.22676
-0.21410
-0.20329
-0.21706
-0.21094
-0.20293
-0.22226
-0.22899
-0.20558
-0.19804
-0.20551
-0.22880
-0.23135
-0.22009
-0.24663
-0.26852
-0.26728
-0.27346
-0.26842
-0.29190
-0.31523
-0.29496
-0.28372
-0.28090
-0.27511
-0.26559
-0.27937
-0.29689
-0.30235
-0.27593
-0.27146
-0.28008
-0.28782
-0.28029
-0.26940
-0.26661
-0.28226
-0.25046
-0.24330
-0.25438
-0.28646
-0.29686
-0.28158
-0.24418
-0.15669
-0.00484
0.14177
0.26369
0.36880
0.50540
0.69735
0.89655
1.11683
1.34768
1.60217
1.81511
1.93913
1.99026
2.00344
1.97174
1.84319
1.55390
1.11659
0.69490
0.43862
0.27844
0.21716
0.19067
0.14644
0.10130
0.06283
0.04409
-0.00708
-0.06747
-0.10772
-0.09837
-0.10647
-0.13132
-0.17266
-0.19068
-0.22824
-0.29708
-0.34710
-0.35428
-0.37812
-0.41442
-0.46415
-0.47903
-0.45596
-0.46926
-0.47859
-0.47064
-0.44020
-0.46270
-0.49540
-0.49789
-0.49450
-0.49729
-0.52319
-0.51449
-0.49306
-0.49189
-0.52762
-0.53820
-0.51425
-0.50376
-0.53167
-0.54810
-0.53261
-0.52920
-0.54397
-0.56600
-0.55901
-0.53474
-0.54924
-0.57823
-0.58641
-0.56982
-0.57126
-0.59690
-0.61171
-0.60553
-0.61853
-0.64201
-0.65399
-0.63337
-0.64316
-0.64882
-0.65999
-0.65352
-0.66768
-0.71213
-0.70707
-0.69732
-0.69719
-0.71224
-0.72910
-0.72502
-0.70671
-0.71318
-0.73015
-0.72124
-0.69672
-0.70128
-0.70637
-0.69226
-0.65672
-0.64251
-0.64147
-0.60832
-0.56933
-0.54568
-0.52924
-0.51573
-0.47421
-0.45385
-0.43312
-0.40625
-0.35265
-0.33265
-0.33085
-0.33680
-0.32745
-0.30877
-0.30460
-0.29921
-0.29209
-0.25806
-0.27116
-0.28330
-0.27680
-0.25203
-0.26361
-0.29228
-0.28862
-0.27194
-0.25444
-0.27644
-0.29700
-0.28147
-0.26488
-0.28487
-0.29354
-0.28677
-0.28574
-0.29592
-0.28491
-0.27793
-0.26167
-0.26772
-0.30950
-0.31128
-0.27796
-0.27516
-0.30753
-0.30855
-0.26447
-0.26807
-0.29545
-0.30641
-0.27769
-0.27229
-0.28731
-0.29263
-0.27025
-0.27065
-0.29677
-0.29335
-0.27837
-0.26141
-0.28414
-0.31479
-0.28454
-0.24524
-0.26063
-0.28175
-0.28657
-0.27340
-0.28734
-0.30279
-0.28881
-0.28060
-0.26783
-0.28477
-0.26907
-0.23608
-0.23266
-0.22986
-0.23282
-0.20407
-0.20446
-0.20553
-0.22835
-0.21178
-0.17522
-0.17851
-0.20460
-0.21638
-0.19168
-0.19970
-0.20982
-0.21508
-0.21445
-0.23642
-0.24716
-0.24159
-0.22763
-0.26250
-0.30264
-0.32347
-0.28677
-0.26902
-0.30032
-0.31545
-0.28367
-0.29177
-0.30228
-0.31166
-0.29965
-0.29499
-0.30125
-0.31050
-0.28855
-0.27892
-0.28981
-0.29955
-0.29626
-0.27713
-0.29793
-0.31271
-0.25414
-0.10226
0.06281
0.17115
0.30709
0.48708
0.72624
0.98584
1.26901
1.60822
1.87379
1.98320
1.98776
1.89077
1.61696
1.06137
0.55603
0.33523
0.26194
0.20676
0.14488
0.10524
0.07674
0.01313
-0.05789
-0.09605
-0.11169
-0.14517
-0.20796
-0.24629
-0.27747
-0.32286
-0.38131
-0.41349
-0.41634
-0.42855
-0.46397
-0.50030
-0.47640
-0.46146
-0.47319
-0.48475
-0.48745
-0.48296
-0.48177
-0.50658
-0.50414
-0.49811
-0.51494
-0.52662
-0.52673
-0.51424
-0.55976
-0.59055
-0.58418
-0.55682
-0.54326
-0.59048
-0.59746
-0.58885
-0.58653
-0.60096
-0.61767
-0.63339
-0.64543
-0.67199
-0.65695
-0.63613
-0.64549
-0.70739
-0.71800
-0.72292
-0.71727
-0.73183
-0.74143
-0.74623
-0.73374
-0.71233
-0.72584
-0.72805
-0.67480
-0.63198
-0.63446
-0.62074
-0.58206
-0.53349
-0.51541
-0.49760
-0.45403
-0.39220
-0.38527
-0.37630
-0.35661
-0.33135
-0.32995
-0.33589
-0.31499
-0.29931
-0.31840
-0.34117
-0.32269
-0.28617
-0.30673
-0.32857
-0.32880
-0.30683
-0.30108
-0.32820
-0.33880
-0.31098
-0.31109
-0.33515
-0.35786
-0.34801
-0.32209
-0.33172
-0.35096
-0.35038
-0.33875
-0.35726
-0.37258
-0.38138
-0.34541
-0.33868
-0.35244
-0.35365
-0.33981
-0.34869
-0.34545
-0.35343
-0.34352
-0.34092
-0.33987
-0.33672
-0.32207
-0.32156
-0.33989
-0.34987
-0.32926
-0.31105
-0.33579
-0.34212
-0.32061
-0.30077
-0.30997
-0.33378
-0.33654
-0.31258
-0.30724
-0.32186
-0.31275
-0.27484
-0.25118
-0.26998
-0.28437
-0.26321
-0.24404
-0.25594
-0.26357
-0.25411
-0.23865
-0.25418
-0.27170
-0.24690
-0.23620
-0.25314
-0.27466
-0.28318
-0.26830
-0.31106
-0.34522
-0.35139
-0.33268
-0.32967
-0.32955
-0.34044
-0.34655
-0.34301
-0.33995
-0.32693
-0.31540
-0.32544
-0.34098
-0.33965
-0.31050
-0.30192
-0.32775
-0.32981
-0.23429
-0.06312
0.04625
0.12413
0.25494
0.46641
0.69686
0.97593
1.30264
1.63452
1.82016
1.79763
1.54390
1.06799
0.63726
0.39785
0.25494
0.17348
0.13981
0.09505
0.01308
-0.04689
-0.09101
-0.14684
-0.19503
-0.24644
-0.28680
-0.33756
-0.38886
-0.43309
-0.44144
-0.49646
-0.51916
-0.51422
-0.49970
-0.53418
-0.54912
-0.54766
-0.52984
-0.55167
-0.56643
-0.58265
-0.55412
-0.56436
-0.58726
-0.59890
-0.59383
-0.58289
-0.60201
-0.62518
-0.62547
-0.62102
-0.63970
-0.64837
-0.65649
-0.64378
-0.66617
-0.68284
-0.68406
-0.69476
-0.71832
-0.75076
-0.74881
-0.72801
-0.74380
-0.79180
-0.78706
-0.76833
-0.75883
-0.78486
-0.78999
-0.74836
-0.71991
-0.72881
-0.72606
-0.68303
-0.63434
-0.61880
-0.60574
-0.55901
-0.51201
-0.46769
-0.44232
-0.43150
-0.39915
-0.37928
-0.37861
-0.37280
-0.36527
-0.35853
-0.35823
-0.34773
-0.32864
-0.33273
-0.35161
-0.36248
-0.33632
-0.33600
-0.36829
-0.36258
-0.34044
-0.32188
-0.34928
-0.37890
-0.37724
-0.34405
-0.36001
-0.38920
-0.38187
-0.34661
-0.36370
-0.38813
-0.38562
-0.34479
-0.37289
-0.38255
-0.39451
-0.36533
-0.36174
-0.37282
-0.37930
-0.36511
-0.35637
-0.34769
-0.35298
-0.35413
-0.35226
-0.35140
-0.36069
-0.38531
-0.35459
-0.34987
-0.35762
-0.35781
-0.34612
-0.36214
-0.36882
-0.37003
-0.33185
-0.32629
-0.33431
-0.31308
-0.28564
-0.27709
-0.29012
-0.28754
-0.26046
-0.25171
-0.26931
-0.26190
-0.23834
-0.23485
-0.26405
-0.28154
-0.26924
-0.25258
-0.26740
-0.30562
-0.30792
-0.30262
-0.29111
-0.32049
-0.34888
-0.35553
-0.33743
-0.32647
-0.35033
-0.35405
-0.35452
-0.34692
-0.35664
-0.34318
-0.34408
-0.36180
-0.36675
-0.34738
-0.31903
-0.33979
-0.34518
-0.31992
-0.21737
-0.06211
0.07840
0.22022
0.35818
0.49606
0.67294
0.94891
1.30819
1.61467
1.78821
1.81072
1.66129
1.25013
0.69848
0.36385
0.22216
0.15721
0.13181
0.11398
0.10613
0.05799
-0.01849
-0.07844
-0.09762
-0.12170
-0.19973
-0.26079
-0.29666
-0.32395
-0.35444
-0.42253
-0.45985
-0.47231
-0.48090
-0.49388
-0.50991
-0.49318
-0.50151
-0.51679
-0.53050
-0.52691
-0.51853
-0.53677
-0.54841
-0.53443
-0.52585
-0.55455
-0.57580
-0.56204
-0.55232
-0.57797
-0.60519
-0.60277
-0.58643
-0.58909
-0.62509
-0.64390
-0.63300
-0.62956
-0.65630
-0.67983
-0.68014
-0.68997
-0.70618
-0.73120
-0.72457
-0.72459
-0.73936
-0.76437
-0.74690
-0.74523
-0.74750
-0.75609
-0.74350
-0.70318
-0.69794
-0.69525
-0.67451
-0.62201
-0.58539
-0.57805
-0.54841
-0.47431
-0.44423
-0.42381
-0.41349
-0.36618
-0.32205
-0.32327
-0.33447
-0.31705
-0.30791
-0.31377
-0.31518
-0.31099
-0.29727
-0.29549
-0.31264
-0.31219
-0.30274
-0.31780
-0.33496
-0.31596
-0.30510
-0.32031
-0.33528
-0.34357
-0.31020
-0.32433
-0.35681
-0.35024
-0.33128
-0.31294
-0.34147
-0.36135
-0.34244
-0.31829
-0.32969
-0.34964
-0.34064
-0.32225
-0.31996
-0.33996
-0.34446
-0.32603
-0.31910
-0.31842
-0.33009
-0.30566
-0.31888
-0.33304
-0.33611
-0.31151
-0.31575
-0.32867
-0.31491
-0.29725
-0.31051
-0.32537
-0.31802
-0.29603
-0.29052
-0.30291
-0.27518
-0.22915
-0.22254
-0.23899
-0.24883
-0.23849
-0.21834
-0.22104
-0.23309
-0.22216
-0.20450
-0.24271
-0.25265
-0.24957
-0.22696
-0.23355
-0.27607
-0.29208
-0.28181
-0.28537
-0.31990
-0.34713
-0.32739
-0.29197
-0.30965
-0.33405
-0.34989
-0.33018
-0.31418
-0.33032
-0.32888
-0.30684
-0.31179
-0.32928
-0.33147
-0.31372
-0.32677
-0.33763
-0.29470
-0.16545
0.00871
0.15606
0.30688
0.49022
0.76826
1.08213
1.41875
1.73403
1.89828
1.88264
1.74816
1.38228
0.86194
0.47711
0.29499
0.25801
0.25364
0.20234
0.11064
0.05612
0.02415
-0.01410
-0.07457
-0.13751
-0.18515
-0.25167
-0.31062
-0.35330
-0.39739
-0.41973
-0.46422
-0.50135
-0.48581
-0.47616
-0.50282
-0.52378
-0.52887
-0.51600
-0.52743
-0.55123
-0.56548
-0.55697
-0.56417
-0.58090
-0.58846
-0.57811
-0.59078
-0.60639
-0.60614
-0.58457
-0.60288
-0.62964
-0.62812
-0.63165
-0.63437
-0.67251
-0.68067
-0.67784
-0.67191
-0.70968
-0.73216
-0.73793
-0.73128
-0.74726
-0.76592
-0.76575
-0.77517
-0.79507
-0.79992
-0.79536
-0.78910
-0.80575
-0.81705
-0.80769
-0.75880
-0.72624
-0.74415
-0.73610
-0.69319
-0.64305
-0.62442
-0.60140
-0.56209
-0.51271
-0.47360
-0.45661
-0.44191
-0.42039
-0.41616
-0.40019
-0.37057
-0.34295
-0.35151
-0.34412
-0.34467
-0.31949
-0.32312
-0.33843
-0.34095
-0.31114
-0.30059
-0.31715
-0.33758
-0.32200
-0.32452
-0.33734
-0.34709
-0.34032
-0.34090
-0.35571
-0.35061
-0.32408
-0.31680
-0.33132
-0.36729
-0.35322
-0.33225
-0.36482
-0.39538
-0.38260
-0.35541
-0.36937
-0.38814
-0.39060
-0.36330
-0.35270
-0.37519
-0.37736
-0.36777
-0.35967
-0.36373
-0.37234
-0.37010
-0.35508
-0.36612
-0.36600
-0.33618
-0.34027
-0.36843
-0.37533
-0.36949
-0.35318
-0.35357
-0.37480
-0.36516
-0.35102
-0.33211
-0.35392
-0.35621
-0.31630
-0.30487
-0.30368
-0.31713
-0.29788
-0.28170
-0.28806
-0.29633
-0.28492
-0.27342
-0.26600
-0.26701
-0.25951
-0.25607
-0.26565
-0.25238
-0.24514
-0.26976
-0.29766
-0.32857
-0.31251
-0.28204
-0.31789
-0.35835
-0.36449
-0.32159
-0.32391
-0.33909
-0.35703
-0.35345
-0.33468
-0.34479
-0.35077
-0.34247
-0.32747
-0.33542
-0.35218
-0.35163
-0.34789
-0.33484
-0.33541
-0.31579
-0.30813
-0.30100
-0.22849
-0.05636
0.12825
0.28371
0.41389
0.61849
0.89659
1.15492
1.39742
1.62659
1.79089
1.86345
1.86650
1.77727
1.49042
1.01474
0.52633
0.27105
0.20742
0.17915
0.13220
0.05147
0.00980
-0.02126
-0.06735
-0.13598
-0.17221
-0.18601
-0.21977
-0.27888
-0.34278
-0.38740
-0.42690
-0.46658
-0.51683
-0.52069
-0.51490
-0.55129
-0.57730
-0.56366
-0.54401
-0.54502
-0.56462
-0.57198
-0.57448
-0.57351
-0.58854
-0.57823
-0.58361
-0.60389
-0.63129
-0.60549
-0.58470
-0.60507
-0.63933
-0.64493
-0.62147
-0.64145
-0.67184
-0.66182
-0.65045
-0.66624
-0.68331
-0.72397
-0.71904
-0.69568
-0.71999
-0.73954
-0.74213
-0.73845
-0.75885
-0.77975
-0.78498
-0.76653
-0.78612
-0.79841
-0.78113
-0.74338
-0.74494
-0.77345
-0.75018
-0.71197
-0.67452
-0.67575
-0.66020
-0.62215
-0.57635
-0.54656
-0.52521
-0.49401
-0.46158
-0.47053
-0.44892
-0.40649
-0.36291
-0.37133
-0.37269
-0.34736
-0.33648
-0.32749
-0.34951
-0.34845
-0.33018
-0.33376
-0.33800
-0.34040
-0.32821
-0.32390
-0.36234
-0.36736
-0.35106
-0.34226
-0.36853
-0.37178
-0.35026
-0.33958
-0.35012
-0.37573
-0.36442
-0.35348
-0.36394
-0.36930
-0.35717
-0.34328
-0.35935
-0.38946
-0.37859
-0.35775
-0.36288
-0.36337
-0.37012
-0.35409
-0.34386
-0.36079
-0.37058
-0.34527
-0.35066
-0.37467
-0.36217
-0.33522
-0.34699
-0.36247
-0.36861
-0.34618
-0.33012
-0.34329
-0.35554
-0.35508
-0.33740
-0.34210
-0.35482
-0.34297
-0.34619
-0.34563
-0.34730
-0.34302
-0.32239
-0.34286
-0.34935
-0.34213
-0.30934
-0.28844
-0.29885
-0.30827
-0.29128
-0.27576
-0.27703
-0.29600
-0.28609
-0.27166
-0.26580
-0.26531
-0.25834
-0.25940
-0.27230
-0.28887
-0.27606
-0.25458
-0.27204
-0.31172
-0.30408
-0.29046
-0.30922
-0.35458
-0.36908
-0.34747
-0.33092
-0.33230
-0.36595
-0.34802
-0.34860
-0.35255
-0.34828
-0.35581
-0.34187
-0.34441
-0.35758
-0.36060
-0.34845
-0.34584
-0.35511
-0.33692
-0.31963
-0.31879
-0.29195
-0.15568
0.05198
0.19623
0.31427
0.47568
0.71070
0.95912
1.14847
1.37359
1.63424
1.77307
1.75740
1.53324
1.07890
0.55093
0.22002
0.09843
0.08806
0.09038
0.04669
-0.01660
-0.07160
-0.09340
-0.13884
-0.20880
-0.23916
-0.25789
-0.30599
-0.38202
-0.44341
-0.45748
-0.46856
-0.49215
-0.53413
-0.53442
-0.54562
-0.55833
-0.56236
-0.56145
-0.56135
-0.56682
-0.57662
-0.57485
-0.55562
-0.58038
-0.61161
-0.58791
-0.57639
-0.57829
-0.62237
-0.62607
-0.60595
-0.60303
-0.63721
-0.67013
-0.66134
-0.66355
-0.66986
-0.69061
-0.68511
-0.68901
-0.72234
-0.74267
-0.73067
-0.72301
-0.76088
-0.78832
-0.77010
-0.75865
-0.78068
-0.79997
-0.79595
-0.77493
-0.77209
-0.77280
-0.77116
-0.73912
-0.70959
-0.71360
-0.71325
-0.68259
-0.63175
-0.60619
-0.59952
-0.54871
-0.50574
-0.49566
-0.48598
-0.45599
-0.41340
-0.39498
-0.41048
-0.39757
-0.36859
-0.36831
-0.36129
-0.36079
-0.34171
-0.35386
-0.37852
-0.37667
-0.35222
-0.35832
-0.38628
-0.38046
-0.35338
-0.34790
-0.38067
-0.38763
-0.38146
-0.35523
-0.36978
-0.38204
-0.37159
-0.38141
-0.38496
-0.39175
-0.38343
-0.36660
-0.38219
-0.40412
-0.39165
-0.38013
-0.37842
-0.39999
-0.40690
-0.37509
-0.37923
-0.38180
-0.38934
-0.38554
-0.37231
-0.38443
-0.37439
-0.36558
-0.36436
-0.37734
-0.39314
-0.36846
-0.34806
-0.35570
-0.37969
-0.37953
-0.36600
-0.37435
-0.39101
-0.38509
-0.38038
-0.37249
-0.37510
-0.36776
-0.35340
-0.36316
-0.39036
-0.39852
-0.38496
-0.35219
-0.37280
-0.37303
-0.33921
-0.31068
-0.31762
-0.32110
-0.30733
-0.29823
-0.29998
-0.31251
-0.29689
-0.27832
-0.28072
-0.29300
-0.28479
-0.27989
-0.30073
-0.30653
-0.31650
-0.27260
-0.26844
-0.32084
-0.35388
-0.34749
-0.35962
-0.37540
-0.40420
-0.40968
-0.38245
-0.37315
-0.36389
-0.35073
-0.36967
-0.38989
-0.40220
-0.38450
-0.36553
-0.37102
-0.39335
-0.39832
-0.37195
-0.36636
-0.38139
-0.39099
-0.38368
-0.36399
-0.34058
-0.22868
-0.02888
0.11759
0.24828
0.39877
0.61741
0.90562
1.18155
1.45107
1.69798
1.84200
1.85703
1.77040
1.48852
0.99753
0.55454
0.30620
0.21903
0.19253
0.15408
0.06089
-0.02353
-0.06381
-0.08370
-0.12767
-0.17703
-0.22437
-0.28649
-0.36000
-0.41493
-0.47402
-0.50478
-0.55242
-0.57169
-0.56038
-0.56416
-0.58628
-0.60537
-0.60060
-0.58283
-0.59089
-0.61834
-0.61226
-0.60196
-0.61395
-0.63203
-0.64327
-0.64102
-0.63630
-0.64241
-0.65711
-0.66068
-0.66477
-0.69209
-0.70784
-0.70571
-0.70220
-0.72190
-0.73341
-0.73137
-0.73143
-0.76506
-0.79634
-0.80947
-0.80825
-0.80411
-0.83551
-0.84286
-0.83102
-0.84200
-0.87682
-0.87194
-0.84451
-0.82406
-0.83110
-0.82665
-0.79577
-0.76798
-0.74427
-0.72010
-0.67691
-0.63969
-0.61676
-0.59814
-0.55213
-0.51767
-0.51312
-0.50142
-0.47365
-0.41640
-0.40807
-0.41711
-0.40992
-0.39257
-0.36894
-0.38391
-0.39793
-0.37881
-0.36947
-0.39459
-0.38925
-0.38365
-0.39184
-0.39684
-0.39366
-0.37078
-0.38431
-0.40115
-0.42520
-0.40724
-0.39607
-0.39992
-0.41910
-0.42102
-0.39434
-0.39742
-0.43647
-0.43523
-0.40533
-0.40228
-0.42752
-0.42736
-0.41307
-0.41135
-0.42138
-0.44016
-0.41291
-0.41138
-0.43491
-0.44300
-0.41283
-0.39778
-0.40909
-0.43260
-0.42671
-0.42289
-0.41458
-0.41184
-0.41775
-0.40252
-0.40246
-0.40264
-0.38756
-0.37654
-0.40143
-0.44625
-0.42373
-0.39633
-0.38469
-0.41721
-0.41736
-0.37519
-0.37537
-0.39548
-0.41186
-0.37668
-0.32991
-0.33795
-0.34746
-0.34354
-0.32315
-0.32648
-0.35509
-0.34639
-0.31264
-0.30582
-0.32270
-0.32099
-0.31417
-0.30117
-0.32340
-0.34730
-0.30555
-0.29005
-0.32911
-0.36058
-0.34030
-0.35260
-0.38108
-0.38524
-0.39064
-0.38428
-0.40084
-0.39936
-0.39032
-0.39292
-0.40392
-0.41613
-0.40270
-0.37685
-0.37491
-0.39509
-0.39589
-0.38127
-0.38506
-0.38669
-0.38722
-0.39305
-0.39121
-0.35294
-0.25268
-0.10210
0.03819
0.15365
0.30261
0.51416
0.74986
0.98387
1.22322
1.51311
1.74587
1.83895
1.80250
1.63464
1.34552
0.92317
0.51338
0.24184
0.10975
0.06767
0.03630
-0.00202
-0.04040
-0.10646
-0.17512
-0.19633
-0.21390
-0.21740
-0.26257
-0.32014
-0.38012
-0.40017
-0.44399
-0.48676
-0.50992
-0.52738
-0.54130
-0.55148
-0.55626
-0.54284
-0.56035
-0.59230
-0.59051
-0.56581
-0.54694
-0.56731
-0.58428
-0.56219
-0.56214
-0.57576
-0.59582
-0.58698
-0.57704
-0.60305
-0.61396
-0.59668
-0.60138
-0.62528
-0.64083
-0.62923
-0.62004
-0.61952
-0.66340
-0.66135
-0.65961
-0.65829
-0.68292
-0.69713
-0.69503
-0.70217
-0.72667
-0.72565
-0.71971
-0.73710
-0.77513
-0.78530
-0.75392
-0.75342
-0.78171
-0.77224
-0.73658
-0.70200
-0.70489
-0.69161
-0.66532
-0.63050
-0.60247
-0.58220
-0.54058
-0.49525
-0.48142
-0.47697
-0.44508
-0.39828
-0.38801
-0.38364
-0.36261
-0.34724
-0.32238
-0.34196
-0.35077
-0.34738
-0.32815
-0.32323
-0.33275
-0.32611
-0.32451
-0.33479
-0.34324
-0.32743
-0.31552
-0.34364
-0.36185
-0.34896
-0.32162
-0.33133
-0.36411
-0.36960
-0.33498
-0.33543
-0.36131
-0.36749
-0.34847
-0.34623
-0.35762
-0.35887
-0.34485
-0.34503
-0.35920
-0.34800
-0.32751
-0.31163
-0.34187
-0.35790
-0.35576
-0.32873
-0.33308
-0.36476
-0.34767
-0.33805
-0.33562
-0.34502
-0.33529
-0.32853
-0.32503
-0.34231
-0.34681
-0.32699
-0.32009
-0.32984
-0.33821
-0.30881
-0.30408
-0.32361
-0.34295
-0.32475
-0.30759
-0.31087
-0.33610
-0.34151
-0.31394
-0.30612
-0.30923
-0.29364
-0.27190
-0.26113
-0.26002
-0.25786
-0.24603
-0.25502
-0.28246
-0.26857
-0.22983
-0.21086
-0.24677
-0.27305
-0.26000
-0.24239
-0.25247
-0.25750
-0.25865
-0.25260
-0.27666
-0.29131
-0.27571
-0.28095
-0.30784
-0.34271
-0.33476
-0.30851
-0.31492
-0.33701
-0.33695
-0.32117
-0.32473
-0.33271
-0.34049
-0.32122
-0.32253
-0.34382
-0.35322
-0.32631
-0.31756
-0.31379
-0.32511
-0.30709
-0.29486
-0.28058
-0.18128
-0.02054
0.08880
0.16377
0.23269
0.34063
0.50156
0.73787
0.99619
1.25913
1.54572
1.72976
1.79030
1.70563
1.41242
0.96528
0.57179
0.35744
0.24216
0.19723
0.16769
0.09999
0.05950
0.02664
-0.04449
-0.10378
-0.13446
-0.15709
-0.20292
-0.26302
-0.30483
-0.34388
-0.38040
-0.43029
-0.45509
-0.45642
-0.46568
-0.49081
-0.50167
-0.50223
-0.48637
-0.51690
-0.52145
-0.50278
-0.49829
-0.51607
-0.54313
-0.54414
-0.53814
-0.54089
-0.56391
-0.55309
-0.54426
-0.56817
-0.58127
-0.56814
-0.57159
-0.58319
-0.62613
-0.62443
-0.60185
-0.60485
-0.63243
-0.65930
-0.65698
-0.65201
-0.67719
-0.70362
-0.69115
-0.67783
-0.70040
-0.72018
-0.70891
-0.68953
-0.68378
-0.71168
-0.69127
-0.66379
-0.64826
-0.64251
-0.61008
-0.55488
-0.52727
-0.50443
-0.46646
-0.41402
-0.38009
-0.38134
-0.35478
-0.31705
-0.30840
-0.31746
-0.31943
-0.29105
-0.27134
-0.28200
-0.30738
-0.29554
-0.29176
-0.30505
-0.31998
-0.30626
-0.29534
-0.28835
-0.31338
-0.31270
-0.31773
-0.32469
-0.32556
-0.33400
-0.32935
-0.33426
-0.33124
-0.33289
-0.31604
-0.32922
-0.34830
-0.34026
-0.33407
-0.33964
-0.34854
-0.35505
-0.33942
-0.33443
-0.34047
-0.36056
-0.33894
-0.31991
-0.33434
-0.34241
-0.34102
-0.31011
-0.32501
-0.34626
-0.35523
-0.32573
-0.32417
-0.33353
-0.34203
-0.35391
-0.31869
-0.34073
-0.35293
-0.34243
-0.32185
-0.33431
-0.33817
-0.32432
-0.31608
-0.32926
-0.32782
-0.30324
-0.27525
-0.26829
-0.28659
-0.27047
-0.24778
-0.25504
-0.27856
-0.26882
-0.22721
-0.22293
-0.24129
-0.23135
-0.21783
-0.22937
-0.24110
-0.25243
-0.25803
-0.25490
-0.27642
-0.29686
-0.30773
-0.30951
-0.32740
-0.34248
-0.32072
-0.30778
-0.32037
-0.33396
-0.32822
-0.31176
-0.31890
-0.33712
-0.33426
-0.30339
-0.31240
-0.33909
-0.33341
-0.30515
-0.27989
-0.29582
-0.29698
-0.19896
-0.02164
0.13265
0.24849
0.39984
0.55588
0.75050
1.00382
1.28622
1.54666
1.71166
1.72177
1.56655
1.19127
0.75244
0.43788
0.29591
0.23358
0.20159
0.13339
0.09736
0.06352
0.00010
-0.07756
-0.13844
-0.15545
-0.16523
-0.23115
-0.31119
-0.34650
-0.37724
-0.43423
-0.47650
-0.48780
-0.49051
-0.50333
-0.51483
-0.49953
-0.49144
-0.51845
-0.54007
-0.52919
-0.51594
-0.51701
-0.55492
-0.54801
-0.53238
-0.54970
-0.57306
-0.57805
-0.57773
-0.56636
-0.58330
-0.62117
-0.60090
-0.59000
-0.60804
-0.64626
-0.66544
-0.66260
-0.66609
-0.68277
-0.68708
-0.69595
-0.70446
-0.71930
-0.72989
-0.71197
-0.72213
-0.74261
-0.74263
-0.71869
-0.71759
-0.72555
-0.71633
-0.66757
-0.61902
-0.60917
-0.59587
-0.53326
-0.47540
-0.46046
-0.45370
-0.40350
-0.34236
-0.32830
-0.35021
-0.33099
-0.28069
-0.27972
-0.31352
-0.33898
-0.29201
-0.27423
-0.28826
-0.30471
-0.29748
-0.29461
-0.29699
-0.30340
-0.29499
-0.29923
-0.30826
-0.32750
-0.31518
-0.29124
-0.31398
-0.32823
-0.32664
-0.31349
-0.31820
-0.32427
-0.31585
-0.31354
-0.30749
-0.31456
-0.30543
-0.28852
-0.30090
-0.30952
-0.29735
-0.27640
-0.27224
-0.29607
-0.29433
-0.27165
-0.26264
-0.27929
-0.28835
-0.26951
-0.25819
-0.28680
-0.27987
-0.26606
-0.26987
-0.29086
-0.29626
-0.27398
-0.26471
-0.26463
-0.27015
-0.24185
-0.19980
-0.20409
-0.21615
-0.22185
-0.21019
-0.19016
-0.19539
-0.20515
-0.18617
-0.17922
-0.19624
-0.21026
-0.18347
-0.16776
-0.19265
-0.22284
-0.23501
-0.22040
-0.23038
-0.27198
-0.28365
-0.25868
-0.24493
-0.26115
-0.27117
-0.26837
-0.25101
-0.26737
-0.26269
-0.25289
-0.24731
-0.24329
-0.25638
-0.23897
-0.22073
-0.23710
-0.22791
-0.12133
0.07734
0.25539
0.39045
0.56308
0.75402
0.94450
1.19951
1.48378
1.76799
1.88242
1.79197
1.46622
0.95129
0.50385
0.26082
0.17842
0.17598
0.17899
0.13382
0.08251
0.02913
-0.01001
-0.05011
-0.08957
-0.14305
-0.19086
-0.22050
-0.29087
-0.31474
-0.34826
-0.38078
-0.41030
-0.41382
-0.40583
-0.42547
-0.45043
-0.44227
-0.42289
-0.43675
-0.45890
-0.47253
-0.44808
-0.43590
-0.47546
-0.48278
-0.46418
-0.46242
-0.47967
-0.50675
-0.50965
-0.49357
-0.50713
-0.53759
-0.53428
-0.52274
-0.53306
-0.55382
-0.55477
-0.55445
-0.57480
-0.59858
-0.61231
-0.60212
-0.61393
-0.64056
-0.64482
-0.61622
-0.62600
-0.65058
-0.63583
-0.61638
-0.60243
-0.60101
-0.58766
-0.54827
-0.50354
-0.48805
-0.47762
-0.43645
-0.36664
-0.34328
-0.33252
-0.31000
-0.26623
-0.24105
-0.26767
-0.26870
-0.22881
-0.22474
-0.24429
-0.26357
-0.24042
-0.23750
-0.24904
-0.26137
-0.25674
-0.25872
-0.26158
-0.27596
-0.27483
-0.25228
-0.25888
-0.27958
-0.27564
-0.26601
-0.27032
-0.26615
-0.27872
-0.25552
-0.27949
-0.28559
-0.27395
-0.26546
-0.26692
-0.28718
-0.26793
-0.24550
-0.25059
-0.27655
-0.27880
-0.25477
-0.24099
-0.25628
-0.26654
-0.23847
-0.22228
-0.25334
-0.26564
-0.25741
-0.23898
-0.23984
-0.25654
-0.27032
-0.23835
-0.23204
-0.24802
-0.24970
-0.24514
-0.23328
-0.24321
-0.24492
-0.22635
-0.20571
-0.20279
-0.19994
-0.17394
-0.15126
-0.15216
-0.17076
-0.16816
-0.15540
-0.15463
-0.15792
-0.14018
-0.13785
-0.15937
-0.16835
-0.14927
-0.14037
-0.15075
-0.19179
-0.19988
-0.18849
-0.20509
-0.23646
-0.24380
-0.22054
-0.20711
-0.22474
-0.23471
-0.21729
-0.20307
-0.20441
-0.21392
-0.21651
-0.20738
-0.20804
-0.22188
-0.20742
-0.19863
-0.18768
-0.20029
-0.18923
-0.18802
-0.14069
-0.04274
0.11074
0.27696
0.40926
0.52304
0.70396
1.00681
1.31916
1.58645
1.80380
1.95856
2.01924
1.93954
1.62127
1.12819
0.74536
0.53643
0.42715
0.36294
0.34941
0.31012
0.22830
0.16346
0.11206
0.06666
-0.01147
-0.05578
-0.08067
-0.12964
-0.21282
-0.27587
-0.29510
-0.30716
-0.34888
-0.37531
-0.37829
-0.36785
-0.39044
-0.41571
-0.41191
-0.41438
-0.42251
-0.43496
-0.42257
-0.41563
-0.42581
-0.45876
-0.46444
-0.43873
-0.45361
-0.48511
-0.49976
-0.49010
-0.48801
-0.50512
-0.53522
-0.54657
-0.52525
-0.54922
-0.55794
-0.55188
-0.54647
-0.58245
-0.61578
-0.60908
-0.61502
-0.61946
-0.64871
-0.64848
-0.63720
-0.64525
-0.67139
-0.68363
-0.64364
-0.62838
-0.64051
-0.63368
-0.62084
-0.57500
-0.56137
-0.53266
-0.49788
-0.46549
-0.45548
-0.44259
-0.38973
-0.33137
-0.32097
-0.29113
-0.24008
-0.20782
-0.20425
-0.20589
-0.18476
-0.14323
-0.14814
-0.17732
-0.16512
-0.15686
-0.14159
-0.16850
-0.17614
-0.16970
-0.14707
-0.14286
-0.15938
-0.15382
-0.16312
-0.17088
-0.17084
-0.16973
-0.16985
-0.16650
-0.18349
-0.17054
-0.16378
-0.18039
-0.21230
-0.18542
-0.17398
-0.18606
-0.20878
-0.20096
-0.16799
-0.17433
-0.19780
-0.20821
-0.18057
-0.16639
-0.19863
-0.19599
-0.18014
-0.16603
-0.18198
-0.17829
-0.17492
-0.16904
-0.17800
-0.17385
-0.15950
-0.16645
-0.18064
-0.17542
-0.16470
-0.14250
-0.13830
-0.15330
-0.16937
-0.16714
-0.16905
-0.18337
-0.17679
-0.12513
-0.10788
-0.12298
-0.11900
-0.07969
-0.06594
-0.09953
-0.11556
-0.10039
-0.09049
-0.08334
-0.08217
-0.07808
-0.07655
-0.07819
-0.08131
-0.07868
-0.08564
-0.12014
-0.13724
-0.15468
-0.15366
-0.15237
-0.15540
-0.15618
-0.13621
-0.13372
-0.15384
-0.17528
-0.15884
-0.14962
-0.16023
-0.16804
-0.14978
-0.12514
-0.14110
-0.16662
-0.14939
-0.15290
-0.13799
-0.13796
-0.13744
-0.08803
0.03315
0.17157
0.27510
0.40226
0.55419
0.72213
0.96785
1.27280
1.55703
1.79202
1.94444
2.01530
1.95181
1.69585
1.28541
0.87079
0.58564
0.39532
0.29862
0.30214
0.30441
0.23704
0.16140
0.11752
0.09957
0.05888
0.00623
-0.03021
-0.05634
-0.12196
-0.19868
-0.25088
-0.27359
-0.28967
-0.32738
-0.34369
-0.35154
-0.33932
-0.35562
-0.35162
-0.36054
-0.36882
-0.39151
-0.39732
-0.37722
-0.35943
-0.37457
-0.39130
-0.40186
-0.38964
-0.39283
-0.41462
-0.41677
-0.41470
-0.41981
-0.43214
-0.43176
-0.43152
-0.44335
-0.47665
-0.46806
-0.46261
-0.46132
-0.48734
-0.52747
-0.53142
-0.51049
-0.52488
-0.57954
-0.58029
-0.57176
-0.56937
-0.59158
-0.60153
-0.59214
-0.59219
-0.60735
-0.59460
-0.56219
-0.54313
-0.55831
-0.54110
-0.48682
-0.44904
-0.45593
-0.44051
-0.38398
-0.33596
-0.32124
-0.31446
-0.29602
-0.25112
-0.25494
-0.24724
-0.22150
-0.20828
-0.19332
-0.18841
-0.17491
-0.13957
-0.14996
-0.17993
-0.18467
-0.15295
-0.14543
-0.17831
-0.18591
-0.17750
-0.16898
-0.18488
-0.18435
-0.16534
-0.17376
-0.18917
-0.18888
-0.16563
-0.16145
-0.18970
-0.20564
-0.19440
-0.17318
-0.16758
-0.19664
-0.18561
-0.17381
-0.17597
-0.19469
-0.19143
-0.17969
-0.17805
-0.19933
-0.20498
-0.17192
-0.16147
-0.18778
-0.19361
-0.16743
-0.15146
-0.17012
-0.20401
-0.18485
-0.16414
-0.17050
-0.18946
-0.18007
-0.15507
-0.16403
-0.17360
-0.16364
-0.15308
-0.17211
-0.18629
-0.18416
-0.16902
-0.16488
-0.19095
-0.18992
-0.16695
-0.15693
-0.18137
-0.19548
-0.18522
-0.15186
-0.14245
-0.14107
-0.12772
-0.11239
-0.11799
-0.13065
-0.11970
-0.09283
-0.09536
-0.10271
-0.10661
-0.10052
-0.12043
-0.13578
-0.12899
-0.11813
-0.13578
-0.17664
-0.18904
-0.16899
-0.17488
-0.20756
-0.22360
-0.22979
-0.20516
-0.21300
-0.21019
-0.19550
-0.20035
-0.21326
-0.22695
-0.22088
-0.19508
-0.21207
-0.22488
-0.21814
-0.19026
-0.19203
-0.20465
-0.20028
-0.20209
-0.19827
-0.16781
-0.06883
0.10192
0.25127
0.33386
0.44520
0.61403
0.81058
1.03411
1.23983
1.48798
1.74508
1.86629
1.86951
1.73247
1.38932
0.90049
0.51323
0.34520
0.29905
0.26789
0.22378
0.19840
0.17610
0.12818
0.05551
0.01404
-0.00725
-0.04864
-0.11313
-0.17645
-0.19142
-0.21968
-0.28872
-0.33332
-0.36309
-0.36221
-0.37292
-0.41144
-0.41668
-0.40092
-0.42080
-0.44170
-0.42537
-0.40284
-0.43708
-0.45537
-0.44130
-0.43436
-0.42793
-0.47150
-0.49058
-0.46959
-0.45854
-0.46984
-0.50178
-0.49037
-0.50162
-0.51257
-0.52194
-0.51363
-0.50950
-0.52510
-0.55189
-0.55504
-0.54843
-0.56624
-0.59566
-0.60534
-0.59355
-0.60623
-0.63559
-0.64411
-0.64793
-0.64024
-0.67372
-0.67706
-0.64760
-0.65018
-0.66840
-0.67497
-0.62770
-0.60236
-0.62434
-0.62343
-0.59457
-0.54731
-0.54048
-0.53443
-0.48449
-0.44321
-0.42094
-0.39284
-0.35625
-0.30483
-0.28644
-0.29409
-0.26682
-0.22852
-0.20674
-0.22148
-0.22333
-0.21943
-0.19995
-0.20290
-0.23393
-0.21973
-0.19520
-0.22177
-0.22921
-0.21864
-0.19235
-0.21125
-0.22812
-0.22508
-0.20928
-0.21088
-0.23325
-0.23849
-0.25167
-0.24693
-0.24551
-0.24004
-0.23968
-0.25074
-0.25688
-0.25957
-0.23314
-0.22794
-0.25231
-0.27181
-0.26241
-0.24015
-0.25473
-0.26804
-0.25063
-0.24435
-0.24746
-0.26575
-0.25002
-0.23192
-0.25258
-0.26099
-0.25006
-0.23486
-0.23472
-0.25116
-0.26371
-0.25243
-0.24745
-0.24436
-0.25269
-0.23422
-0.23773
-0.26327
-0.25887
-0.22816
-0.20633
-0.25716
-0.25964
-0.23849
-0.22465
-0.24151
-0.25540
-0.25091
-0.21595
-0.22104
-0.24225
-0.24305
-0.24649
-0.23014
-0.22536
-0.21534
-0.17258
-0.17723
-0.19022
-0.18463
-0.17100
-0.14591
-0.16759
-0.18061
-0.17671
-0.14140
-0.13329
-0.15716
-0.15484
-0.14890
-0.15955
-0.16315
-0.14884
-0.14448
-0.18036
-0.21870
-0.21337
-0.18983
-0.20099
-0.24072
-0.26675
-0.24922
-0.22992
-0.23158
-0.23140
-0.22751
-0.24095
-0.26180
-0.25004
-0.22864
-0.23057
-0.24772
-0.24502
-0.22911
-0.22478
-0.23404
-0.24580
-0.22134
-0.17779
-0.17735
-0.14426
-0.00910
0.18063
0.31422
0.42898
0.56485
0.78286
1.05386
1.30701
1.54142
1.75668
1.81822
1.66952
1.33623
0.92063
0.60350
0.41532
0.30809
0.29338
0.26723
0.21690
0.13710
0.09677
0.07346
0.01494
-0.03900
-0.08302
-0.11517
-0.16022
-0.22861
-0.29114
-0.33065
-0.35908
-0.41157
-0.41701
-0.41166
-0.41292
-0.43856
-0.44182
-0.44278
-0.43448
-0.46147
-0.47714
-0.48710
-0.46370
-0.47875
-0.50008
-0.49284
-0.48756
-0.50156
-0.51620
-0.52509
-0.51478
-0.50983
-0.53651
-0.54931
-0.55109
-0.56088
-0.59976
-0.60077
-0.58943
-0.60036
-0.63781
-0.66042
-0.64562
-0.62082
-0.67076
-0.69787
-0.69211
-0.70325
-0.70488
-0.72816
-0.72702
-0.71354
-0.73189
-0.72934
-0.71216
-0.66795
-0.65665
-0.66782
-0.62954
-0.56710
-0.54682
-0.55416
-0.52976
-0.47684
-0.42108
-0.41322
-0.40811
-0.36001
-0.31840
-0.30632
-0.30233
-0.27465
-0.25685
-0.26213
-0.26987
-0.24919
-0.23535
-0.24680
-0.25394
-0.24980
-0.22618
-0.21717
-0.23748
-0.25247
-0.24534
-0.23982
-0.24937
-0.23815
-0.23423
-0.23860
-0.25802
-0.28347
-0.26111
-0.24299
-0.27132
-0.27602
-0.26869
-0.24211
-0.26439
-0.28855
-0.27488
-0.24609
-0.24531
-0.25617
-0.25650
-0.25593
-0.26335
-0.27858
-0.26479
-0.23861
-0.24016
-0.27377
-0.26427
-0.24059
-0.23174
-0.24130
-0.27117
-0.26734
-0.22624
-0.23672
-0.25613
-0.24013
-0.22244
-0.24114
-0.25481
-0.23629
-0.21607
-0.22855
-0.24810
-0.23622
-0.20907
-0.20860
-0.23882
-0.25170
-0.23692
-0.22854
-0.22396
-0.22599
-0.20489
-0.19244
-0.18933
-0.18212
-0.15605
-0.16145
-0.18278
-0.19374
-0.17166
-0.13638
-0.14587
-0.16582
-0.14338
-0.11582
-0.12372
-0.16403
-0.17201
-0.15083
-0.14053
-0.16498
-0.17280
-0.17462
-0.18723
-0.21375
-0.22217
-0.21256
-0.21202
-0.23754
-0.24379
-0.21731
-0.19589
-0.20845
-0.24015
-0.24150
-0.22091
-0.22171
-0.23214
-0.23737
-0.22449
-0.22527
-0.22893
-0.21040
-0.19648
-0.20103
-0.22321
-0.22279
-0.14839
-0.00274
0.14265
0.27640
0.43641
0.66001
0.87677
1.13776
1.39881
1.66854
1.84087
1.86990
1.77013
1.42055
0.89037
0.49400
0.31703
0.26960
0.25879
0.23098
0.18695
0.14860
0.07420
0.00460
-0.03352
-0.04261
-0.10277
-0.18988
-0.23069
-0.26053
-0.28188
-0.32602
-0.38509
-0.40599
-0.40743
-0.41257
-0.44615
-0.44515
-0.44316
-0.46082
-0.45911
-0.45677
-0.45853
-0.46491
-0.48066
-0.48613
-0.46724
-0.47615
-0.51267
-0.51814
-0.49505
-0.51384
-0.53870
-0.56591
-0.55419
-0.54047
-0.57127
-0.60383
-0.60678
-0.58858
-0.61662
-0.64083
-0.64354
-0.63421
-0.65064
-0.68097
-0.67208
-0.66497
-0.68209
-0.69894
-0.70504
-0.67526
-0.67447
-0.68529
-0.66490
-0.62414
-0.60535
-0.59999
-0.57780
-0.52971
-0.48431
-0.46919
-0.44312
-0.38821
-0.34486
-0.34304
-0.33150
-0.29892
-0.26918
-0.25954
-0.25215
-0.23678
-0.21680
-0.22386
-0.24133
-0.24942
-0.24264
-0.24182
-0.25220
-0.25433
-0.24115
-0.23835
-0.26667
-0.27210
-0.26071
-0.24745
-0.27282
-0.28689
-0.25635
-0.24496
-0.26715
-0.30084
-0.27885
-0.25992
-0.26466
-0.28870
-0.28622
-0.26689
-0.26974
-0.28330
-0.29319
-0.27863
-0.25403
-0.27828
-0.27528
-0.26671
-0.25529
-0.27121
-0.26754
-0.24823
-0.25672
-0.25738
-0.26662
-0.24901
-0.24335
-0.26074
-0.27467
-0.26404
-0.23146
-0.25202
-0.28598
-0.27448
-0.23728
-0.24919
-0.27550
-0.27712
-0.24421
-0.24148
-0.24318
-0.25092
-0.22645
-0.21456
-0.21977
-0.20485
-0.18692
-0.18464
-0.20135
-0.19079
-0.15908
-0.14752
-0.17967
-0.19343
-0.18849
-0.17490
-0.18938
-0.22103
-0.21242
-0.21236
-0.22415
-0.24918
-0.26520
-0.24548
-0.24983
-0.27467
-0.27115
-0.26216
-0.25636
-0.28139
-0.29132
-0.28414
-0.27412
-0.27678
-0.29463
-0.28135
-0.25294
-0.26901
-0.30283
-0.27534
-0.24147
-0.25613
-0.27501
-0.22808
-0.06967
0.10038
0.21787
0.31122
0.43397
0.55173
0.69611
0.94970
1.27701
1.58801
1.82087
1.87191
1.72610
1.32259
0.80300
0.50401
0.36329
0.31268
0.28221
0.23606
0.18696
0.13080
0.04410
-0.01834
-0.04517
-0.09257
-0.15513
-0.24136
-0.31252
-0.32966
-0.34103
-0.39688
-0.44458
-0.47275
-0.46420
-0.48306
-0.50183
-0.50013
-0.49836
-0.51045
-0.51634
-0.52311
-0.51396
-0.53206
-0.54837
-0.54048
-0.53709
-0.56737
-0.57905
-0.59360
-0.58010
-0.60389
-0.63109
-0.63083
-0.61133
-0.61023
-0.66616
-0.68813
-0.67967
-0.67537
-0.71450
-0.73629
-0.73994
-0.74420
-0.75780
-0.76907
-0.75988
-0.76263
-0.78073
-0.79339
-0.77255
-0.75639
-0.76252
-0.75536
-0.71417
-0.69667
-0.68939
-0.65717
-0.60326
-0.54371
-0.51845
-0.53138
-0.50032
-0.43461
-0.38740
-0.38202
-0.36325
-0.32383
-0.29153
-0.28233
-0.29256
-0.28474
-0.27082
-0.28681
-0.29640
-0.28350
-0.26248
-0.29868
-0.30006
-0.26260
-0.24739
-0.26015
-0.27854
-0.28896
-0.26996
-0.26231
-0.28684
-0.29981
-0.28535
-0.26376
-0.28279
-0.30715
-0.29807
-0.27588
-0.28411
-0.31175
-0.31019
-0.30829
-0.31728
-0.33180
-0.31898
-0.30374
-0.31457
-0.30602
-0.30018
-0.29355
-0.31602
-0.32959
-0.32322
-0.30891
-0.30717
-0.31145
-0.33288
-0.31011
-0.28778
-0.29624
-0.31015
-0.30097
-0.28369
-0.28439
-0.29254
-0.31480
-0.30313
-0.30072
-0.31790
-0.30708
-0.29049
-0.29164
-0.29394
-0.28513
-0.24473
-0.25224
-0.26707
-0.24960
-0.21219
-0.21098
-0.24243
-0.24374
-0.21273
-0.18337
-0.19576
-0.21582
-0.21249
-0.20393
-0.21853
-0.21498
-0.20339
-0.21695
-0.25031
-0.28087
-0.27645
-0.26353
-0.28755
-0.29385
-0.29526
-0.29750
-0.30246
-0.30035
-0.29543
-0.29522
-0.29159
-0.31031
-0.32275
-0.30254
-0.28390
-0.30378
-0.32033
-0.29888
-0.26750
-0.26493
-0.26693
-0.27729
-0.26449
-0.18695
-0.02001
0.15493
0.31685
0.47835
0.67677
0.94876
1.25257
1.49575
1.69802
1.85578
1.94070
1.86692
1.58273
1.10615
0.64577
0.37924
0.26115
0.22303
0.19747
0.14091
0.08107
0.05213
0.01112
-0.02840
-0.08007
-0.13758
-0.19074
-0.25044
-0.29791
-0.35655
-0.40422
-0.41481
-0.44946
-0.48579
-0.49718
-0.49134
-0.48045
-0.50013
-0.52030
-0.52406
-0.50774
-0.52667
-0.54539
-0.53346
-0.52156
-0.52555
-0.53994
-0.55159
-0.54644
-0.57163
-0.57407
-0.58205
-0.59997
-0.60795
-0.63025
-0.63023
-0.60437
-0.63141
-0.65975
-0.67215
-0.66236
-0.67674
-0.72634
-0.72905
-0.73507
-0.71931
-0.74989
-0.77511
-0.76898
-0.76004
-0.75375
-0.76401
-0.74894
-0.71566
-0.72261
-0.69775
-0.67392
-0.61823
-0.58507
-0.56230
-0.52824
-0.47587
-0.45184
-0.42180
-0.37941
-0.35679
-0.33150
-0.33316
-0.31838
-0.29385
-0.30070
-0.33077
-0.33020
-0.30105
-0.28323
-0.29612
-0.32014
-0.29400
-0.28563
-0.30568
-0.32148
-0.30572
-0.28758
-0.28412
-0.33153
-0.31911
-0.28652
-0.30311
-0.32937
-0.33362
-0.31110
-0.30353
-0.32242
-0.32936
-0.31026
-0.30476
-0.32032
-0.32071
-0.31249
-0.29736
-0.31734
-0.30956
-0.29665
-0.28734
-0.30071
-0.30873
-0.29968
-0.28469
-0.29135
-0.30949
-0.29320
-0.28600
-0.30302
-0.31086
-0.29603
-0.28078
-0.28514
-0.30368
-0.31702
-0.28443
-0.28217
-0.29071
-0.28784
-0.27275
-0.22398
-0.23555
-0.23268
-0.22293
-0.20670
-0.22071
-0.24664
-0.22752
-0.18861
-0.18449
-0.20677
-0.22397
-0.20584
-0.20893
-0.23223
-0.22905
-0.24886
-0.24898
-0.26132
-0.27112
-0.27668
-0.29211
-0.31925
-0.31334
-0.29013
-0.29191
-0.30350
-0.32321
-0.32088
-0.29645
-0.30573
-0.32583
-0.32486
-0.29525
-0.30286
-0.32189
-0.30963
-0.28336
-0.27917
-0.30952
-0.25016
-0.09057
0.07216
0.20714
0.33031
0.51300
0.73544
0.96809
1.17663
1.42754
1.68106
1.82381
1.82056
1.59318
1.11928
0.61217
0.32463
0.23002
0.20746
0.18811
0.13049
0.09314
0.05061
-0.00405
-0.07336
-0.12979
-0.16121
-0.20669
-0.27338
-0.33287
-0.36538
-0.40879
-0.45213
-0.46992
-0.46376
-0.46731
-0.50381
-0.51771
-0.51062
-0.48426
-0.50982
-0.53073
-0.53883
-0.51991
-0.52614
-0.55754
-0.55589
-0.54875
-0.55192
-0.57276
-0.58208
-0.57748
-0.58841
-0.61785
-0.63742
-0.60812
-0.60898
-0.64409
-0.66524
-0.64929
-0.64027
-0.68171
-0.70199
-0.69162
-0.67844
-0.69693
-0.73244
-0.75046
-0.73357
-0.73723
-0.75528
-0.75643
-0.74934
-0.74626
-0.76726
-0.76284
-0.71724
-0.71022
-0.70675
-0.69204
-0.64164
-0.60456
-0.61457
-0.58311
-0.53030
-0.47903
-0.45424
-0.43747
-0.40493
-0.35645
-0.34264
-0.34885
-0.33699
-0.33534
-0.31646
-0.32857
-0.31054
-0.30858
-0.31042
-0.32627
-0.32514
-0.32056
-0.32069
-0.33637
-0.32986
-0.30631
-0.31206
-0.34115
-0.34360
-0.33877
-0.31743
-0.32995
-0.35080
-0.34627
-0.34036
-0.35149
-0.37280
-0.36643
-0.33585
-0.35132
-0.34412
-0.35163
-0.34846
-0.32820
-0.34433
-0.34884
-0.34233
-0.33434
-0.33892
-0.33658
-0.33211
-0.32567
-0.33562
-0.33638
-0.32196
-0.31910
-0.33584
-0.32638
-0.31774
-0.30571
-0.32564
-0.34184
-0.32470
-0.31850
-0.33960
-0.34254
-0.33170
-0.31829
-0.32767
-0.33586
-0.32082
-0.27639
-0.25066
-0.26623
-0.26094
-0.24210
-0.23632
-0.24846
-0.25994
-0.22359
-0.22528
-0.26438
-0.29517
-0.27313
-0.24497
-0.26208
-0.31146
-0.32700
-0.31085
-0.30512
-0.36049
-0.37063
-0.35624
-0.34746
-0.35178
-0.35214
-0.35592
-0.36589
-0.34368
-0.35470
-0.35108
-0.34832
-0.35756
-0.34832
-0.32920
-0.31041
-0.32814
-0.35716
-0.34069
-0.23702
-0.07763
0.09558
0.23819
0.38621
0.53540
0.72303
0.99879
1.32751
1.59475
1.74265
1.74716
1.55642
1.11994
0.66286
0.39488
0.28544
0.24244
0.20077
0.14283
0.11277
0.05313
-0.01499
-0.07458
-0.11914
-0.16140
-0.22887
-0.29033
-0.31562
-0.33162
-0.40689
-0.46820
-0.48689
-0.48758
-0.50941
-0.52690
-0.52458
-0.52471
-0.52735
-0.54467
-0.54944
-0.55216
-0.54406
-0.55512
-0.57262
-0.56505
-0.56405
-0.57102
-0.58382
-0.58470
-0.59507
-0.62195
-0.64898
-0.63655
-0.62213
-0.64586
-0.68322
-0.67852
-0.66934
-0.67148
-0.70213
-0.74039
-0.73318
-0.72591
-0.75361
-0.78677
-0.79599
-0.78926
-0.78781
-0.80679
-0.81335
-0.80450
-0.81178
-0.81243
-0.79592
-0.76291
-0.76298
-0.76864
-0.73287
-0.67601
-0.66268
-0.62955
-0.59621
-0.54309
-0.49924
-0.47184
-0.45532
-0.42331
-0.39308
-0.39554
-0.37803
-0.36572
-0.33744
-0.35116
-0.35653
-0.33193
-0.32586
-0.32159
-0.34142
-0.33450
-0.32494
-0.33571
-0.35282
-0.35017
-0.31662
-0.32664
-0.36289
-0.35682
-0.33313
-0.33233
-0.36349
-0.38933
-0.36607
-0.36286
-0.36117
-0.36575
-0.36769
-0.34478
-0.34977
-0.36165
-0.36698
-0.36655
-0.37309
-0.36789
-0.36036
-0.34903
-0.36201
-0.37876
-0.36497
-0.33463
-0.35086
-0.36755
-0.36154
-0.32973
-0.33217
-0.35850
-0.37000
-0.35056
-0.32971
-0.34261
-0.37521
-0.34633
-0.33465
-0.34518
-0.35029
-0.35017
-0.32384
-0.31919
-0.32264
-0.31853
-0.30461
-0.31928
-0.33441
-0.29607
-0.26506
-0.26604
-0.27875
-0.25846
-0.24599
-0.25798
-0.27810
-0.26693
-0.23721
-0.23941
-0.26996
-0.27956
-0.23997
-0.22220
-0.26603
-0.30331
-0.29977
-0.28702
-0.28265
-0.30672
-0.30801
-0.31312
-0.33303
-0.32065
-0.31651
-0.30465
-0.31695
-0.34144
-0.33198
-0.30891
-0.31338
-0.32985
-0.33464
-0.31264
-0.29497
-0.29482
-0.30871
-0.28860
-0.28657
-0.29411
-0.26216
-0.12227
0.04965
0.14862
0.23350
0.36573
0.55952
0.75177
1.01616
1.30824
1.62040
1.81485
1.86570
1.83247
1.71388
1.39504
0.87152
0.46563
0.26846
0.17529
0.13687
0.11615
0.08408
0.03837
-0.03712
-0.08400
-0.09038
-0.09746
-0.15765
-0.23744
-0.28113
-0.30656
-0.36230
-0.43851
-0.45652
-0.45388
-0.48080
-0.49535
-0.50834
-0.49843
-0.50764
-0.52511
-0.52472
-0.51771
-0.50850
-0.54551
-0.55403
-0.53571
-0.52905
-0.54755
-0.55637
-0.55230
-0.55580
-0.55895
-0.58583
-0.59318
-0.56568
-0.59524
-0.60928
-0.61148
-0.58662
-0.60186
-0.62841
-0.64135
-0.62223
-0.63471
-0.66726
-0.67163
-0.67974
-0.68072
-0.70360
-0.72397
-0.71763
-0.72583
-0.74552
-0.75323
-0.73938
-0.72565
-0.75574
-0.76761
-0.73701
-0.70305
-0.70132
-0.71849
-0.68436
-0.62881
-0.59676
-0.60831
-0.58239
-0.53533
-0.51527
-0.49689
-0.46136
-0.40777
-0.39741
-0.39934
-0.37623
-0.33092
-0.32008
-0.33349
-0.35418
-0.32261
-0.29846
-0.31824
-0.32155
-0.32273
-0.29362
-0.31629
-0.32151
-0.31199
-0.31103
-0.31467
-0.32850
-0.31250
-0.29586
-0.31827
-0.33616
-0.34471
-0.31865
-0.32343
-0.34904
-0.34838
-0.34241
-0.32758
-0.33992
-0.35230
-0.34636
-0.33051
-0.34161
-0.34708
-0.34644
-0.33432
-0.33512
-0.34861
-0.33895
-0.31988
-0.32501
-0.33925
-0.33073
-0.31269
-0.31258
-0.32826
-0.34817
-0.32043
-0.31671
-0.33479
-0.34405
-0.32691
-0.30751
-0.31719
-0.32828
-0.34695
-0.32625
-0.32087
-0.34076
-0.33357
-0.30763
-0.32505
-0.32540
-0.32150
-0.31256
-0.31608
-0.31618
-0.29705
-0.25582
-0.24485
-0.26576
-0.25906
-0.22739
-0.23041
-0.25930
-0.24581
-0.21982
-0.21024
-0.24998
-0.27603
-0.26430
-0.23662
-0.24618
-0.28397
-0.29577
-0.29089
-0.29817
-0.32361
-0.33810
-0.32406
-0.33326
-0.34776
-0.33327
-0.29644
-0.30950
-0.33602
-0.33940
-0.31497
-0.30601
-0.33012
-0.33429
-0.30535
-0.29313
-0.30918
-0.32370
-0.30019
-0.28464
-0.28801
-0.24455
-0.11752
0.06360
0.18115
0.28105
0.43209
0.63873
0.90052
1.13287
1.36422
1.58561
1.71588
1.78302
1.76442
1.52227
1.07464
0.64957
0.42241
0.31864
0.27914
0.23973
0.18507
0.15412
0.11615
0.04090
-0.01683
-0.05598
-0.08211
-0.15309
-0.23819
-0.27177
-0.30383
-0.35024
-0.40325
-0.42951
-0.43382
-0.45000
-0.47260
-0.48864
-0.48228
-0.48936
-0.50142
-0.50515
-0.49951
-0.49749
-0.52287
-0.54176
-0.52482
-0.51149
-0.53472
-0.55897
-0.57676
-0.55425
-0.55121
-0.56938
-0.56898
-0.56650
-0.57448
-0.59584
-0.60602
-0.59079
-0.61478
-0.63736
-0.63794
-0.63416
-0.63629
-0.68032
-0.68066
-0.68318
-0.69500
-0.69714
-0.72490
-0.72779
-0.72153
-0.74388
-0.75169
-0.75295
-0.73860
-0.75857
-0.77366
-0.75740
-0.71136
-0.71377
-0.71043
-0.67874
-0.64292
-0.60763
-0.60672
-0.58803
-0.54640
-0.49831
-0.49113
-0.46656
-0.41876
-0.39527
-0.38571
-0.37226
-0.33471
-0.31799
-0.32961
-0.34119
-0.30367
-0.28467
-0.30349
-0.31698
-0.33358
-0.31271
-0.30852
-0.31212
-0.30584
-0.31050
-0.32100
-0.32021
-0.30941
-0.30001
-0.29574
-0.33279
-0.34877
-0.31943
-0.30357
-0.30985
-0.33467
-0.33793
-0.32064
-0.32419
-0.34505
-0.34293
-0.31610
-0.32710
-0.33536
-0.33384
-0.31491
-0.31579
-0.33838
-0.33493
-0.31104
-0.31714
-0.34959
-0.35462
-0.31103
-0.29406
-0.32745
-0.34516
-0.32820
-0.31213
-0.32577
-0.33218
-0.30938
-0.30676
-0.31782
-0.32121
-0.31307
-0.29358
-0.30384
-0.32951
-0.32475
-0.28760
-0.29714
-0.32270
-0.32045
-0.30073
-0.27790
-0.30438
-0.31961
-0.28584
-0.26356
-0.27727
-0.25591
-0.22931
-0.22704
-0.23632
-0.24690
-0.21092
-0.21552
-0.21814
-0.20883
-0.18798
-0.16891
-0.19150
-0.20758
-0.21233
-0.19834
-0.19811
-0.23681
-0.25588
-0.23774
-0.24012
-0.26474
-0.28280
-0.29801
-0.28839
-0.28944
-0.29237
-0.26012
-0.25362
-0.27999
-0.29402
-0.29050
-0.26191
-0.25213
-0.28566
-0.28665
-0.27698
-0.28278
-0.27446
-0.27727
-0.25399
-0.26647
-0.28244
-0.27095
-0.21630
-0.10240
0.04738
0.21008
0.36310
0.49126
0.60946
0.81690
1.08672
1.34617
1.56367
1.72453
1.79835
1.77609
1.57420
1.18402
0.75427
0.46131
0.29178
0.23309
0.23454
0.22444
0.17807
0.09207
0.02629
0.02058
-0.01307
-0.05384
-0.10327
-0.13981
-0.18499
-0.25803
-0.31294
-0.33166
-0.38061
-0.43536
-0.45242
-0.45494
-0.43236
-0.45343
-0.48065
-0.47731
-0.46342
-0.46719
-0.49323
-0.51344
-0.49344
-0.50113
-0.51093
-0.51520
-0.50513
-0.50327
-0.53327
-0.53625
-0.51712
-0.51147
-0.54415
-0.57513
-0.57313
-0.55637
-0.56520
-0.59364
-0.59309
-0.58725
-0.60759
-0.63178
-0.64251
-0.64913
-0.66261
-0.67614
-0.68496
-0.65566
-0.69296
-0.73687
-0.72845
-0.70895
-0.71639
-0.74895
-0.74353
-0.71524
-0.70127
-0.70729
-0.70622
-0.65714
-0.64552
-0.63616
-0.61356
-0.56417
-0.50577
-0.51698
-0.51997
-0.48176
-0.42847
-0.40923
-0.39671
-0.38118
-0.34769
-0.31931
-0.30779
-0.28983
-0.27501
-0.27351
-0.29870
-0.29140
-0.25832
-0.25553
-0.28845
-0.30119
-0.27240
-0.26080
-0.26653
-0.28708
-0.28233
-0.27843
-0.28868
-0.29421
-0.28536
-0.27180
-0.28995
-0.30372
-0.28814
-0.26476
-0.27235
-0.30110
-0.31227
-0.28333
-0.27702
-0.30304
-0.31674
-0.29735
-0.29283
-0.30114
-0.29930
-0.28382
-0.27993
-0.28940
-0.30520
-0.27383
-0.25678
-0.27669
-0.30123
-0.29554
-0.26879
-0.25645
-0.26550
-0.27231
-0.26789
-0.27504
-0.27747
-0.27271
-0.26743
-0.27718
-0.28690
-0.28038
-0.26012
-0.26551
-0.27711
-0.30018
-0.26633
-0.24646
-0.25945
-0.28151
-0.27614
-0.23905
-0.25126
-0.25706
-0.23538
-0.22096
-0.21968
-0.21144
-0.20788
-0.19205
-0.19198
-0.21884
-0.20939
-0.17256
-0.16165
-0.19362
-0.20477
-0.18592
-0.16381
-0.17199
-0.19176
-0.18642
-0.18967
-0.21038
-0.23854
-0.24644
-0.25113
-0.25548
-0.27105
-0.27173
-0.25757
-0.26588
-0.27423
-0.26908
-0.24587
-0.26102
-0.27605
-0.26406
-0.24166
-0.24239
-0.27462
-0.26978
-0.24452
-0.23805
-0.24465
-0.25940
-0.20958
-0.06623
0.11707
0.26361
0.42360
0.64592
0.89586
1.20127
1.50212
1.77005
1.87233
1.85936
1.70958
1.33968
0.81854
0.43961
0.29329
0.26311
0.22832
0.16696
0.10722
0.07212
0.01164
-0.04181
-0.08189
-0.08950
-0.12605
-0.20378
-0.27680
-0.31286
-0.34442
-0.37404
-0.42769
-0.44565
-0.43191
-0.42971
-0.45010
-0.45116
-0.45564
-0.46489
-0.46972
-0.48306
-0.46956
-0.48778
-0.50202
-0.49701
-0.48377
-0.49718
-0.52225
-0.52789
-0.51614
-0.51421
-0.55266
-0.56351
-0.56181
-0.54798
-0.56797
-0.61395
-0.61331
-0.59851
-0.61271
-0.63932
-0.65379
-0.63830
-0.64662
-0.67631
-0.68777
-0.67880
-0.67930
-0.67875
-0.68527
-0.67486
-0.65947
-0.65242
-0.63623
-0.60019
-0.56688
-0.55871
-0.54686
-0.48355
-0.42379
-0.42294
-0.40460
-0.34356
-0.30914
-0.29524
-0.30821
-0.29746
-0.25876
-0.24896
-0.26163
-0.27576
-0.24885
-0.23705
-0.26095
-0.26580
-0.25060
-0.24090
-0.26340
-0.26361
-0.25234
-0.25708
-0.27793
-0.29064
-0.27629
-0.27141
-0.27945
-0.29790
-0.28441
-0.25699
-0.28256
-0.30833
-0.30700
-0.29338
-0.27882
-0.28809
-0.29937
-0.27726
-0.26462
-0.27362
-0.27585
-0.27070
-0.25931
-0.24822
-0.24141
-0.22071
-0.21077
-0.21537
-0.22027
-0.16311
-0.12008
-0.12293
-0.14519
-0.07602
0.01091
0.06043
0.10560
0.19951
0.31258
0.33680
0.30521
0.26581
0.23205
0.00871
-0.49606
-1.04896
-1.39670
-1.66287
-1.89020
-2.00157
-2.02002
-1.98898
-1.98207
-1.98235
-1.91311
-1.76075
-1.65551
-1.60029
-1.47084
-1.37710
-1.35979
-1.31943
-1.23573
-1.11418
-1.01087
-0.92636
-0.87655
-0.83157
-0.78550
-0.73959
-0.64723
-0.50269
-0.37575
-0.25840
-0.14207
-0.01359
0.06393
0.11189
0.12310
0.17131
0.23640
0.24820
0.27069
0.31902
0.35454
0.39186
0.40798
0.44044
0.49600
0.51232
0.52079
0.54605
0.59273
0.61382
0.61776
0.65305
0.69691
0.73636
0.75562
0.80308
0.84370
0.87484
0.91184
0.94255
0.98716
1.01620
1.02888
1.06005
1.09001
1.13792
1.13063
1.11012
1.12272
1.12038
1.10414
1.06502
1.05040
1.05223
1.00838
0.93442
0.87260
0.82978
0.79707
0.71032
0.61591
0.57929
0.54471
0.43793
0.34172
0.28663
0.24903
0.20775
0.14470
0.09776
0.05699
0.00634
-0.06409
-0.08265
-0.09791
-0.13060
-0.15241
-0.17737
-0.19024
-0.22124
-0.24185
-0.22799
-0.22548
-0.21923
-0.24129
-0.25252
-0.24957
-0.24392
-0.28265
-0.29221
-0.27560
-0.26177
-0.27536
-0.28705
-0.29186
-0.27051
-0.26919
-0.28605
-0.30202
-0.29456
-0.29058
-0.31330
-0.32327
-0.30894
-0.30078
-0.32103
-0.33506
-0.32250
-0.30445
-0.31860
-0.33089
-0.31749
-0.30012
-0.33062
-0.33532
-0.33053
-0.32210
-0.32914
-0.33639
-0.32956
-0.32198
-0.35728
-0.36600
-0.34579
-0.33651
-0.34590
-0.36494
-0.35343
-0.34252
-0.34067
-0.37120
-0.37976
-0.34944
-0.33996
-0.35667
-0.36215
-0.34404
-0.33071
-0.33021
-0.37297
-0.36232
-0.34073
-0.33831
-0.36028
-0.35611
-0.35064
-0.34638
-0.35970
-0.37182
-0.35760
-0.34569
-0.35637
-0.35474
-0.36204
-0.36784
-0.36158
-0.36112
-0.34676
-0.36127
-0.37390
-0.38264
-0.35445
-0.33102
-0.35723
-0.36714
-0.37149
-0.35201
-0.37015
-0.37157
-0.35188
-0.32492
-0.31539
-0.34318
-0.32596
-0.28702
-0.26916
-0.28803
-0.29515
-0.28785
-0.26630
-0.27951
-0.28716
-0.27719
-0.26934
-0.28394
-0.28096
-0.27285
-0.27865
-0.31207
-0.30644
-0.30745
-0.31239
-0.34111
-0.37416
-0.35671
-0.33606
-0.33317
-0.35650
-0.34070
-0.32826
-0.32392
-0.34063
-0.36474
-0.32979
-0.31451
-0.33960
-0.36546
-0.31863
-0.30541
-0.32000
-0.31064
-0.19577
-0.01162
0.15067
0.28964
0.49007
0.72667
1.02775
1.33562
1.63218
1.86669
1.93606
1.91024
1.79865
1.43542
0.87528
0.42606
0.26366
0.24305
0.17765
0.07594
-0.01102
-0.04034
-0.06066
-0.10694
-0.17113
-0.19832
-0.23968
-0.30019
-0.36326
-0.40023
-0.41830
-0.44725
-0.48309
-0.48764
-0.47928
-0.50975
-0.52118
-0.51418
-0.51746
-0.51670
-0.53241
-0.52977
-0.53121
-0.53667
-0.55659
-0.57365
-0.53756
-0.53793
-0.57274
-0.57767
-0.57698
-0.56762
-0.59608
-0.65092
-0.63295
-0.61045
-0.64446
-0.69062
-0.68075
-0.66406
-0.66737
-0.69195
-0.72092
-0.71709
-0.72431
-0.74650
-0.75593
-0.74761
-0.74585
-0.75701
-0.76503
-0.74461
-0.72739
-0.71954
-0.71625
-0.67016
-0.63231
-0.62194
-0.59819
-0.54500
-0.48529
-0.45953
-0.44156
-0.39255
-0.34400
-0.31596
-0.32204
-0.30498
-0.26834
-0.25975
-0.27134
-0.27633
-0.26645
-0.26288
-0.26470
-0.26843
-0.25688
-0.25185
-0.26201
-0.28250
-0.26700
-0.26288
-0.29463
-0.29539
-0.28508
-0.26759
-0.27977
-0.30028
-0.28322
-0.27666
-0.28936
-0.31039
-0.30182
-0.27930
-0.27307
-0.29210
-0.30564
-0.27505
-0.26575
-0.28712
-0.28865
-0.27703
-0.25978
-0.25484
-0.26341
-0.25564
-0.25685
-0.27279
-0.27588
-0.26291
-0.25744
-0.27984
-0.28544
-0.26447
-0.24045
-0.26017
-0.29277
-0.28117
-0.24482
-0.24344
-0.27145
-0.27123
-0.24035
-0.21055
-0.21939
-0.22912
-0.21537
-0.20689
-0.21298
-0.22714
-0.21100
-0.19198
-0.20138
-0.21766
-0.20815
-0.20914
-0.22909
-0.22951
-0.21900
-0.21081
-0.23543
-0.27248
-0.28484
-0.25212
-0.27400
-0.30381
-0.31390
-0.30852
-0.28495
-0.29959
-0.30527
-0.30928
-0.31893
-0.30532
-0.31003
-0.29611
-0.29341
-0.31588
-0.32189
-0.29998
-0.27087
-0.28021
-0.30021
-0.29811
-0.26867
-0.26813
-0.20064
-0.06556
0.11189
0.27406
0.40854
0.56675
0.78447
0.97571
1.15247
1.37871
1.65282
1.81570
1.77888
1.58593
1.18200
0.70639
0.38817
0.24245
0.20583
0.20247
0.17745
0.10181
0.06308
0.01477
-0.04414
-0.10664
-0.13055
-0.16018
-0.21847
-0.29310
-0.33040
-0.36112
-0.39413
-0.44733
-0.47759
-0.46535
-0.46767
-0.49350
-0.50508
-0.50350
-0.49949
-0.50547
-0.51317
-0.51460
-0.50277
-0.52139
-0.53550
-0.52666
-0.52627
-0.53635
-0.55446
-0.54526
-0.53021
-0.53946
-0.56635
-0.58540
-0.57673
-0.56934
-0.60387
-0.62144
-0.60924
-0.60808
-0.63498
-0.64860
-0.64310
-0.64560
-0.68752
-0.69277
-0.67859
-0.68413
-0.69997
-0.72682
-0.71919
-0.69632
-0.71265
-0.73218
-0.73793
-0.69792
-0.67222
-0.68351
-0.66539
-0.63502
-0.59849
-0.57594
-0.56093
-0.51550
-0.47362
-0.45399
-0.43884
-0.40347
-0.37562
-0.37792
-0.37746
-0.34416
-0.32227
-0.31872
-0.33619
-0.31817
-0.28132
-0.29046
-0.32421
-0.32479
-0.29225
-0.29057
-0.31264
-0.31997
-0.30713
-0.30163
-0.31615
-0.32523
-0.31608
-0.31705
-0.32293
-0.33496
-0.32549
-0.31249
-0.33873
-0.34275
-0.32337
-0.32740
-0.34853
-0.34112
-0.31091
-0.31490
-0.32954
-0.33894
-0.31844
-0.29790
-0.31356
-0.32332
-0.32680
-0.28811
-0.29175
-0.30503
-0.32985
-0.31155
-0.28044
-0.29228
-0.30430
-0.30341
-0.28708
-0.28717
-0.30116
-0.28687
-0.27519
-0.28900
-0.30179
-0.28930
-0.29514
-0.30033
-0.29795
-0.29938
-0.27772
-0.26634
-0.27216
-0.25609
-0.22232
-0.22070
-0.23987
-0.24391
-0.21509
-0.18861
-0.21508
-0.21840
-0.21002
-0.20595
-0.22286
-0.23798
-0.21049
-0.20224
-0.21677
-0.25973
-0.26121
-0.24334
-0.25852
-0.28220
-0.28472
-0.28787
-0.28408
-0.29756
-0.26871
-0.26722
-0.29089
-0.31548
-0.31209
-0.29076
-0.28861
-0.29226
-0.30766
-0.29676
-0.27118
-0.27090
-0.29235
-0.30332
-0.29292
-0.28706
-0.23037
-0.10201
0.06689
0.23955
0.37474
0.54625
0.77559
1.05376
1.31225
1.60523
1.84070
1.93262
1.86969
1.69333
1.39666
1.03504
0.71730
0.47518
0.35456
0.31369
0.27593
0.21851
0.15978
0.10071
0.01582
-0.04066
-0.06260
-0.09198
-0.13969
-0.20859
-0.25910
-0.29048
-0.31401
-0.36035
-0.40813
-0.43045
-0.45660
-0.47321
-0.49584
-0.48797
-0.49090
-0.50209
-0.50737
-0.47826
-0.48320
-0.50122
-0.53936
-0.53543
-0.50279
-0.51579
-0.54082
-0.53813
-0.54642
-0.55619
-0.56374
-0.56119
-0.56328
-0.59070
-0.62090
-0.62118
-0.60041
-0.59190
-0.62554
-0.65848
-0.64836
-0.63482
-0.66383
-0.70235
-0.70918
-0.70573
-0.72657
-0.75073
-0.74829
-0.75377
-0.75134
-0.78198
-0.78047
-0.74499
-0.75695
-0.76539
-0.74756
-0.69848
-0.67503
-0.67154
-0.67972
-0.64093
-0.58670
-0.55631
-0.54036
-0.49749
-0.46986
-0.44475
-0.42279
-0.38409
-0.35077
-0.34179
-0.32941
-0.28492
-0.26582
-0.27109
-0.28916
-0.28621
-0.26748
-0.27462
-0.28629
-0.28529
-0.26657
-0.26218
-0.26976
-0.28605
-0.27034
-0.25538
-0.26388
-0.26721
-0.26354
-0.28954
-0.30095
-0.30137
-0.28639
-0.28131
-0.29935
-0.30681
-0.29961
-0.27243
-0.28897
-0.31726
-0.32049
-0.29848
-0.29627
-0.30728
-0.31117
-0.30267
-0.30199
-0.30679
-0.31966
-0.30950
-0.28500
-0.29971
-0.31936
-0.30440
-0.28452
-0.29538
-0.31622
-0.29323
-0.27318
-0.30400
-0.32573
-0.29279
-0.27507
-0.29135
-0.31905
-0.30813
-0.28078
-0.27160
-0.28495
-0.28195
-0.25460
-0.24222
-0.23298
-0.24568
-0.23494
-0.22527
-0.23059
-0.22629
-0.20861
-0.18674
-0.18383
-0.19007
-0.19642
-0.19201
-0.20204
-0.22271
-0.21795
-0.20979
-0.22793
-0.25680
-0.25669
-0.24223
-0.26831
-0.30668
-0.30188
-0.27165
-0.24639
-0.27031
-0.29628
-0.27592
-0.25867
-0.26371
-0.26473
-0.26611
-0.26627
-0.27446
-0.27428
-0.25281
-0.24836
-0.26553
-0.26539
-0.17499
-0.00161
0.16093
0.27502
0.40360
0.57414
0.73940
0.96863
1.27330
1.61559
1.86955
1.91806
1.75333
1.35755
0.83797
0.45352
0.27853
0.24350
0.23990
0.21462
0.16304
0.11258
0.06087
-0.00169
-0.04416
-0.06105
-0.08705
-0.16931
-0.25100
-0.28008
-0.29048
-0.31582
-0.36952
-0.39322
-0.39676
-0.40605
-0.42209
-0.43083
-0.42968
-0.42581
-0.43609
-0.44398
-0.43335
-0.44689
-0.45367
-0.46787
-0.45838
-0.44729
-0.46036
-0.48449
-0.47669
-0.46564
-0.48396
-0.51027
-0.50129
-0.49363
-0.51166
-0.52968
-0.52547
-0.51117
-0.51842
-0.55564
-0.57305
-0.56058
-0.56064
-0.59583
-0.62970
-0.62093
-0.60543
-0.63629
-0.64768
-0.65207
-0.64582
-0.65019
-0.65725
-0.64235
-0.62685
-0.63429
-0.66509
-0.63558
-0.59297
-0.58389
-0.57694
-0.54849
-0.49595
-0.47071
-0.46239
-0.45168
-0.42705
-0.39374
-0.36670
-0.34273
-0.29452
-0.25861
-0.26404
-0.25652
-0.22174
-0.20949
-0.22418
-0.23160
-0.22258
-0.18717
-0.19734
-0.20655
-0.20142
-0.18768
-0.20402
-0.22243
-0.22164
-0.20563
-0.21385
-0.24122
-0.24697
-0.21399
-0.20525
-0.24192
-0.25103
-0.23151
-0.22440
-0.23286
-0.24674
-0.23679
-0.22072
-0.23156
-0.23959
-0.24720
-0.24155
-0.23799
-0.24003
-0.22148
-0.20034
-0.21892
-0.24364
-0.22864
-0.21201
-0.22051
-0.24363
-0.24035
-0.23062
-0.22126
-0.24022
-0.24688
-0.22749
-0.21276
-0.22541
-0.23327
-0.21235
-0.21042
-0.22764
-0.23145
-0.22348
-0.20853
-0.21798
-0.22172
-0.22634
-0.21662
-0.21234
-0.21958
-0.21111
-0.17830
-0.15809
-0.18271
-0.18472
-0.14546
-0.14032
-0.16133
-0.17322
-0.14364
-0.12506
-0.12858
-0.14777
-0.16639
-0.15217
-0.14999
-0.16068
-0.17793
-0.20004
-0.20890
-0.21936
-0.22222
-0.22603
-0.24371
-0.25649
-0.25846
-0.21906
-0.21675
-0.24445
-0.25899
-0.24833
-0.23325
-0.23443
-0.25873
-0.24051
-0.21783
-0.23161
-0.23948
-0.21650
-0.20124
-0.21755
-0.23619
-0.22319
-0.13028
0.00116
0.13148
0.26417
0.39152
0.47876
0.57025
0.72464
0.98040
1.28709
1.58191
1.81009
1.93303
1.85173
1.53542
1.04690
0.66267
0.47397
0.38100
0.32405
0.33015
0.32114
0.23957
0.15977
0.09382
0.06217
0.01356
-0.06604
-0.11552
-0.14510
-0.19474
-0.26245
-0.29895
-0.32025
-0.35137
-0.38192
-0.40841
-0.40558
-0.39634
-0.42983
-0.44879
-0.43916
-0.44020
-0.44354
-0.46647
-0.46171
-0.44535
-0.45415
-0.46839
-0.47671
-0.47354
-0.48653
-0.50540
-0.50089
-0.48265
-0.50629
-0.53771
-0.53532
-0.53394
-0.54042
-0.56512
-0.57439
-0.56176
-0.55517
-0.58101
-0.58929
-0.59071
-0.58944
-0.61408
-0.64837
-0.64971
-0.64202
-0.65835
-0.68497
-0.68475
-0.66716
-0.67056
-0.69412
-0.69391
-0.66918
-0.64809
-0.65924
-0.64515
-0.61792
-0.59356
-0.58093
-0.55556
-0.51118
-0.48551
-0.47807
-0.44695
-0.38464
-0.35921
-0.35106
-0.35915
-0.32345
-0.26939
-0.25909
-0.27589
-0.25911
-0.24458
-0.24745
-0.26140
-0.25027
-0.21730
-0.22813
-0.24197
-0.24385
-0.22839
-0.22452
-0.23900
-0.25951
-0.25262
-0.24079
-0.25033
-0.26573
-0.25824
-0.25394
-0.26296
-0.26666
-0.24805
-0.23239
-0.26350
-0.28830
-0.28001
-0.25409
-0.27602
-0.30205
-0.29067
-0.26772
-0.26195
-0.29129
-0.30176
-0.27964
-0.28956
-0.30891
-0.28820
-0.27970
-0.27183
-0.29678
-0.29846
-0.27057
-0.26941
-0.27751
-0.30417
-0.28371
-0.25171
-0.26339
-0.28803
-0.28643
-0.27206
-0.27198
-0.29486
-0.29229
-0.27975
-0.28335
-0.29668
-0.29787
-0.27719
-0.27087
-0.30439
-0.30807
-0.27790
-0.26495
-0.27945
-0.28755
-0.24379
-0.20669
-0.23188
-0.25226
-0.22772
-0.20992
-0.22223
-0.22552
-0.21496
-0.20166
-0.19626
-0.21639
-0.21229
-0.20790
-0.22502
-0.24059
-0.24547
-0.24460
-0.24747
-0.27455
-0.28687
-0.28571
-0.29739
-0.31654
-0.31307
-0.27286
-0.25046
-0.28563
-0.32523
-0.30912
-0.28592
-0.28027
-0.31201
-0.31136
-0.27472
-0.27299
-0.28163
-0.27729
-0.26143
-0.27682
-0.26249
-0.16698
0.01994
0.16664
0.23975
0.34774
0.50736
0.68792
0.93311
1.23302
1.53513
1.77188
1.84485
1.74128
1.45625
1.02278
0.62802
0.38612
0.27566
0.23733
0.23399
0.20876
0.16816
0.12003
0.04318
-0.03202
-0.06772
-0.08815
-0.12813
-0.22788
-0.30052
-0.33521
-0.35717
-0.39748
-0.44012
-0.45440
-0.45452
-0.47502
-0.49282
-0.49162
-0.49251
-0.49613
-0.51821
-0.52250
-0.50272
-0.51486
-0.53574
-0.53362
-0.51338
-0.52394
-0.55811
-0.56919
-0.56053
-0.54264
-0.55764
-0.59341
-0.58552
-0.57898
-0.60302
-0.61152
-0.60574
-0.59773
-0.62729
-0.65663
-0.66515
-0.65808
-0.66027
-0.70845
-0.70593
-0.70240
-0.72448
-0.75373
-0.76155
-0.75251
-0.75769
-0.76131
-0.75720
-0.74046
-0.72743
-0.75157
-0.72762
-0.69374
-0.66589
-0.66777
-0.64070
-0.59368
-0.55378
-0.55098
-0.54326
-0.49922
-0.44881
-0.43322
-0.40584
-0.38324
-0.34600
-0.33538
-0.33691
-0.31137
-0.28741
-0.28994
-0.31516
-0.30468
-0.26778
-0.26737
-0.29633
-0.31313
-0.28816
-0.27238
-0.28139
-0.30950
-0.30600
-0.30046
-0.30026
-0.30144
-0.27862
-0.27420
-0.30039
-0.31852
-0.29820
-0.28033
-0.29454
-0.31910
-0.32003
-0.28999
-0.29813
-0.32060
-0.31887
-0.30775
-0.29263
-0.30978
-0.33897
-0.30886
-0.30120
-0.31899
-0.31899
-0.30701
-0.29566
-0.31426
-0.32114
-0.30524
-0.28337
-0.29940
-0.31620
-0.30997
-0.27696
-0.27431
-0.30058
-0.28622
-0.27651
-0.28083
-0.29074
-0.28758
-0.27673
-0.28398
-0.30703
-0.30031
-0.26897
-0.27523
-0.28706
-0.29007
-0.25200
-0.23137
-0.23343
-0.24609
-0.22770
-0.20204
-0.22987
-0.26204
-0.23160
-0.20821
-0.18334
-0.22205
-0.22738
-0.18930
-0.18972
-0.20633
-0.22942
-0.24072
-0.24124
-0.24518
-0.25555
-0.26089
-0.27458
-0.30234
-0.30323
-0.28441
-0.26573
-0.29639
-0.29752
-0.27963
-0.26726
-0.28708
-0.30392
-0.28426
-0.26742
-0.26483
-0.27442
-0.29203
-0.26361
-0.26248
-0.26988
-0.16245
0.02553
0.20328
0.32882
0.43518
0.57735
0.73930
0.94198
1.24143
1.59546
1.84048
1.86874
1.71979
1.32200
0.79101
0.39935
0.23343
0.23387
0.25058
0.21178
0.14633
0.08052
0.01356
-0.02151
-0.07990
-0.15095
-0.18540
-0.22706
-0.29168
-0.34847
-0.37960
-0.39892
-0.43897
-0.46031
-0.45404
-0.45317
-0.47395
-0.50151
-0.50787
-0.48997
-0.51983
-0.54772
-0.53224
-0.50731
-0.51361
-0.55420
-0.55286
-0.54923
-0.53829
-0.54872
-0.56458
-0.56355
-0.56401
-0.59896
-0.61273
-0.61537
-0.61999
-0.64074
-0.64284
-0.62952
-0.63220
-0.65516
-0.70290
-0.68616
-0.68323
-0.71279
-0.74901
-0.74164
-0.73040
-0.74364
-0.76661
-0.76922
-0.74444
-0.74556
-0.74522
-0.74131
-0.72058
-0.69773
-0.67364
-0.64825
-0.60034
-0.56573
-0.55536
-0.51831
-0.47313
-0.43859
-0.43773
-0.43666
-0.40340
-0.36136
-0.35514
-0.38085
-0.36346
-0.32836
-0.32591
-0.35408
-0.35511
-0.33944
-0.33179
-0.34508
-0.34434
-0.33617
-0.34047
-0.35777
-0.35700
-0.34972
-0.35670
-0.35426
-0.36248
-0.35459
-0.34959
-0.37021
-0.37456
-0.37732
-0.35691
-0.34201
-0.37958
-0.37810
-0.34325
-0.34139
-0.36814
-0.37930
-0.34783
-0.33210
-0.35128
-0.35191
-0.34147
-0.34802
-0.34793
-0.34531
-0.34075
-0.32280
-0.34048
-0.35606
-0.33454
-0.31355
-0.33386
-0.34995
-0.32379
-0.29951
-0.31787
-0.33562
-0.32861
-0.31849
-0.30656
-0.31969
-0.33241
-0.31653
-0.30998
-0.32599
-0.32889
-0.31425
-0.30703
-0.30176
-0.28823
-0.24317
-0.23774
-0.26011
-0.26347
-0.24454
-0.22713
-0.23727
-0.24218
-0.22757
-0.21236
-0.21360
-0.25230
-0.24401
-0.22944
-0.22715
-0.25621
-0.27849
-0.27640
-0.28465
-0.31339
-0.32873
-0.33053
-0.31220
-0.31459
-0.30949
-0.28686
-0.28985
-0.32669
-0.33307
-0.30703
-0.30943
-0.31272
-0.32332
-0.28509
-0.26878
-0.28396
-0.30406
-0.29654
-0.26024
-0.15714
0.00439
0.16444
0.33919
0.51639
0.73400
1.03670
1.38829
1.69224
1.90783
1.99349
1.95771
1.74185
1.26154
0.78290
0.53414
0.41371
0.33416
0.28032
0.23254
0.13162
0.03409
-0.01676
-0.04834
-0.08987
-0.16688
-0.25821
-0.30627
-0.33905
-0.37865
-0.44475
-0.44996
-0.45415
-0.45772
-0.48452
-0.49592
-0.46592
-0.45277
-0.48457
-0.51366
-0.51738
-0.49377
-0.52261
-0.56067
-0.54639
-0.52070
-0.53727
-0.57330
-0.58016
-0.56494
-0.57086
-0.58992
-0.60675
-0.59598
-0.61460
-0.63266
-0.65636
-0.66761
-0.66824
-0.68176
-0.68462
-0.67597
-0.68635
-0.72402
-0.73318
-0.71857
-0.72110
-0.72041
-0.72553
-0.69573
-0.66318
-0.67549
-0.67679
-0.65449
-0.59367
-0.54514
-0.52364
-0.48450
-0.42116
-0.38864
-0.37889
-0.36192
-0.31556
-0.28270
-0.28661
-0.29328
-0.28590
-0.27653
-0.28019
-0.27658
-0.27805
-0.27416
-0.28153
-0.27517
-0.28274
-0.27614
-0.27774
-0.28981
-0.29115
-0.27394
-0.27955
-0.28623
-0.28948
-0.27597
-0.26875
-0.30362
-0.30358
-0.27930
-0.27528
-0.31535
-0.32377
-0.30878
-0.29499
-0.29883
-0.31501
-0.31765
-0.30967
-0.31195
-0.30654
-0.31101
-0.30164
-0.30616
-0.29840
-0.29341
-0.29129
-0.28184
-0.30407
-0.29830
-0.28229
-0.28613
-0.28989
-0.28301
-0.26593
-0.26560
-0.29268
-0.29806
-0.27720
-0.26038
-0.27191
-0.28203
-0.28446
-0.26118
-0.25575
-0.28254
-0.27572
-0.25635
-0.21970
-0.22751
-0.20634
-0.20062
-0.22348
-0.23543
-0.22009
-0.19516
-0.19196
-0.18559
-0.17004
-0.15638
-0.15305
-0.17609
-0.17760
-0.15285
-0.15656
-0.19342
-0.22073
-0.21431
-0.18716
-0.21694
-0.26083
-0.26091
-0.24382
-0.22510
-0.24167
-0.24194
-0.22858
-0.23639
-0.24626
-0.23736
-0.23923
-0.23720
-0.24138
-0.24697
-0.21629
-0.19383
-0.20212
-0.21829
-0.22652
-0.19566
-0.12772
0.04991
0.27326
0.47826
0.65937
0.91439
1.24592
1.59823
1.84861
1.97312
1.97567
1.87735
1.61754
1.17218
0.70718
0.44977
0.37656
0.33671
0.29235
0.24082
0.18562
0.10314
0.06052
0.03448
0.00010
-0.06659
-0.13708
-0.18176
-0.23914
-0.30674
-0.34534
-0.36232
-0.36768
-0.40065
-0.41840
-0.40200
-0.38009
-0.39253
-0.42689
-0.42755
-0.41307
-0.42660
-0.46867
-0.47479
-0.45458
-0.45929
-0.50441
-0.51980
-0.49265
-0.48705
-0.51366
-0.54866
-0.56019
-0.53585
-0.56599
-0.59618
-0.59580
-0.59470
-0.61892
-0.65352
-0.68620
-0.68230
-0.65696
-0.67312
-0.68536
-0.69130
-0.67529
-0.67701
-0.67285
-0.62662
-0.60240
-0.58992
-0.57275
-0.53431
-0.48611
-0.47505
-0.43979
-0.38581
-0.32551
-0.29706
-0.27690
-0.24992
-0.23485
-0.23884
-0.24472
-0.21578
-0.18160
-0.19416
-0.22478
-0.21002
-0.18383
-0.18769
-0.21367
-0.20101
-0.18707
-0.18998
-0.21423
-0.22737
-0.21511
-0.18874
-0.21227
-0.23968
-0.21632
-0.20926
-0.22461
-0.23063
-0.22856
-0.20899
-0.21033
-0.21304
-0.20975
-0.21566
-0.21543
-0.23100
-0.22853
-0.22283
-0.22401
-0.23564
-0.22916
-0.21909
-0.21858
-0.23627
-0.23855
-0.20254
-0.20315
-0.21744
-0.21486
-0.20870
-0.19706
-0.19468
-0.23013
-0.22412
-0.19171
-0.18240
-0.20758
-0.21605
-0.18896
-0.19565
-0.20753
-0.19688
-0.18049
-0.17756
-0.16017
-0.15270
-0.14153
-0.15458
-0.15781
-0.15627
-0.13260
-0.12801
-0.13242
-0.13794
-0.12061
-0.11095
-0.11956
-0.13205
-0.11951
-0.11645
-0.14737
-0.18126
-0.17537
-0.16549
-0.17895
-0.19337
-0.20659
-0.19359
-0.18942
-0.19102
-0.18506
-0.18157
-0.18707
-0.20854
-0.18818
-0.17638
-0.17258
-0.19157
-0.20564
-0.18833
-0.16291
-0.17591
-0.18956
-0.18638
-0.14490
-0.05710
0.06269
0.21638
0.37644
0.48737
0.58203
0.76003
1.02182
1.34126
1.64311
1.86377
1.94225
1.77763
1.33865
0.80910
0.48563
0.36276
0.33163
0.29891
0.29502
0.27606
0.18918
0.10929
0.06770
0.04640
-0.00374
-0.09743
-0.15000
-0.18855
-0.23249
-0.26461
-0.30427
-0.33068
-0.34887
-0.37075
-0.39564
-0.38263
-0.38735
-0.40811
-0.40254
-0.41101
-0.40878
-0.43135
-0.44373
-0.43818
-0.42676
-0.44650
-0.47838
-0.47683
-0.45023
-0.46953
-0.49671
-0.49731
-0.48674
-0.48649
-0.52147
-0.53992
-0.53302
-0.53556
-0.56533
-0.55207
-0.55972
-0.57719
-0.61285
-0.63181
-0.61721
-0.61312
-0.64064
-0.65296
-0.64379
-0.65451
-0.67152
-0.66592
-0.65817
-0.62331
-0.61143
-0.61422
-0.59273
-0.54278
-0.50152
-0.48497
-0.44315
-0.39599
-0.36140
-0.33737
-0.31446
-0.28560
-0.26710
-0.26431
-0.25068
-0.20760
-0.19540
-0.23046
-0.24460
-0.21264
-0.19516
-0.21737
-0.23504
-0.21875
-0.18259
-0.18634
-0.21071
-0.21103
-0.20136
-0.21991
-0.22798
-0.21346
-0.21066
-0.21775
-0.23510
-0.22772
-0.22147
-0.22349
-0.24313
-0.25207
-0.22580
-0.20271
-0.21902
-0.25238
-0.23474
-0.21801
-0.22398
-0.25644
-0.23476
-0.22903
-0.23349
-0.24038
-0.25344
-0.23552
-0.23789
-0.24776
-0.25014
-0.20687
-0.21397
-0.22995
-0.21991
-0.20209
-0.20147
-0.22507
-0.23976
-0.21071
-0.19653
-0.20550
-0.22344
-0.22797
-0.22278
-0.21957
-0.24212
-0.22865
-0.21482
-0.22338
-0.24318
-0.22801
-0.21359
-0.21023
-0.22493
-0.20353
-0.16930
-0.15096
-0.15789
-0.17145
-0.15301
-0.16006
-0.14710
-0.15562
-0.15433
-0.14113
-0.15003
-0.14457
-0.14604
-0.14049
-0.16203
-0.16106
-0.13487
-0.13537
-0.17190
-0.20988
-0.21220
-0.19065
-0.18890
-0.24001
-0.24830
-0.23357
-0.21344
-0.22465
-0.23857
-0.23099
-0.24189
-0.25570
-0.25539
-0.22422
-0.20265
-0.22494
-0.24612
-0.22962
-0.19544
-0.22267
-0.23423
-0.21019
-0.19407
-0.21032
-0.21342
-0.16511
-0.06877
0.03855
0.13159
0.25381
0.39280
0.53059
0.70671
0.92295
1.22128
1.51301
1.76004
1.94742
2.01751
1.93910
1.67574
1.28098
0.93596
0.71729
0.55120
0.44398
0.40003
0.39871
0.35599
0.26804
0.19378
0.15380
0.11426
0.04410
0.00536
-0.02260
-0.06429
-0.12337
-0.18042
-0.20957
-0.25519
-0.32682
-0.35876
-0.37403
-0.37387
-0.39293
-0.41925
-0.41708
-0.41362
-0.41407
-0.41813
-0.42303
-0.41834
-0.42654
-0.45093
-0.43589
-0.42108
-0.43197
-0.47388
-0.47804
-0.45715
-0.45927
-0.48708
-0.50697
-0.49707
-0.49251
-0.50314
-0.51713
-0.50149
-0.51018
-0.54414
-0.55578
-0.55706
-0.54674
-0.58583
-0.60683
-0.61124
-0.59686
-0.60725
-0.65326
-0.65317
-0.66017
-0.66949
-0.68296
-0.67874
-0.66804
-0.66485
-0.67346
-0.65568
-0.62975
-0.61833
-0.60729
-0.57904
-0.54937
-0.51104
-0.49196
-0.48427
-0.43899
-0.37941
-0.35239
-0.33898
-0.30644
-0.27930
-0.25601
-0.25075
-0.23233
-0.20585
-0.21340
-0.23773
-0.21753
-0.17579
-0.17733
-0.20749
-0.21931
-0.19749
-0.17909
-0.19008
-0.19934
-0.18746
-0.18157
-0.19211
-0.19849
-0.19558
-0.18699
-0.20214
-0.23251
-0.20976
-0.19051
-0.19438
-0.21978
-0.21557
-0.19012
-0.19589
-0.23608
-0.24031
-0.20854
-0.18390
-0.21200
-0.24717
-0.23331
-0.23723
-0.23832
-0.21222
-0.20731
-0.20056
-0.23115
-0.24488
-0.23002
-0.21555
-0.21333
-0.24190
-0.23465
-0.19207
-0.20105
-0.22939
-0.23029
-0.21010
-0.20551
-0.21957
-0.22891
-0.20864
-0.21479
-0.23076
-0.22912
-0.22070
-0.21155
-0.21801
-0.22786
-0.19957
-0.18524
-0.19990
-0.22883
-0.22418
-0.19835
-0.19739
-0.20084
-0.19580
-0.16560
-0.15398
-0.15795
-0.16364
-0.15203
-0.15685
-0.17455
-0.16085
-0.12292
-0.12475
-0.14692
-0.15316
-0.13813
-0.13288
-0.17193
-0.20224
-0.19629
-0.17909
-0.19104
-0.20633
-0.20449
-0.21456
-0.22400
-0.24145
-0.24573
-0.22249
-0.21474
-0.24171
-0.23026
-0.23022
-0.23057
-0.24027
-0.23720
-0.21543
-0.19490
-0.20595
-0.22730
-0.22761
-0.19515
-0.19219
-0.20767
-0.22006
-0.20734
-0.11990
0.04001
0.19524
0.30612
0.39970
0.50852
0.69234
0.94286
1.18331
1.44644
1.71530
1.92003
1.99568
1.91207
1.68055
1.26767
0.83930
0.55042
0.39658
0.34869
0.33884
0.32228
0.28406
0.27133
0.22627
0.11897
0.05429
0.00843
-0.00818
-0.05424
-0.11867
-0.17177
-0.20253
-0.25250
-0.30967
-0.32050
-0.32830
-0.38471
-0.42952
-0.44490
-0.42202
-0.42477
-0.45822
-0.46935
-0.46737
-0.45733
-0.46216
-0.46701
-0.45830
-0.42449
-0.45958
-0.50736
-0.50885
-0.47867
-0.49566
-0.52131
-0.52142
-0.51933
-0.52516
-0.54690
-0.55599
-0.55427
-0.54313
-0.57856
-0.59074
-0.55990
-0.56970
-0.60224
-0.63215
-0.62865
-0.63349
-0.65507
-0.67680
-0.69579
-0.69693
-0.70292
-0.71677
-0.71160
-0.70814
-0.72585
-0.74134
-0.73755
-0.70624
-0.71119
-0.74201
-0.75271
-0.71624
-0.69025
-0.68631
-0.66862
-0.65121
-0.62409
-0.61879
-0.58755
-0.52968
-0.48436
-0.47307
-0.45789
-0.40356
-0.33498
-0.32122
-0.33291
-0.29479
-0.26854
-0.25903
-0.24744
-0.24157
-0.21902
-0.22365
-0.23601
-0.23654
-0.20866
-0.20788
-0.24302
-0.23084
-0.20102
-0.19174
-0.22496
-0.26499
-0.24014
-0.22386
-0.23269
-0.25223
-0.24163
-0.23385
-0.25012
-0.25681
-0.26092
-0.24810
-0.25602
-0.25758
-0.24913
-0.23436
-0.24799
-0.27219
-0.25904
-0.23684
-0.24592
-0.27349
-0.26488
-0.23928
-0.22181
-0.24942
-0.26656
-0.25167
-0.23677
-0.24337
-0.24179
-0.22725
-0.22249
-0.24014
-0.25257
-0.23635
-0.23643
-0.25021
-0.25260
-0.23980
-0.21633
-0.23123
-0.24805
-0.23217
-0.20969
-0.22046
-0.25783
-0.25410
-0.22521
-0.21904
-0.23778
-0.24003
-0.21425
-0.18248
-0.19884
-0.19964
-0.18457
-0.17040
-0.18981
-0.19531
-0.17749
-0.15792
-0.16432
-0.17702
-0.19252
-0.18118
-0.20019
-0.22383
-0.21224
-0.19910
-0.20904
-0.24489
-0.24959
-0.22041
-0.21532
-0.25631
-0.27540
-0.25216
-0.24328
-0.24811
-0.25363
-0.24781
-0.24436
-0.25576
-0.26304
-0.23764
-0.21644
-0.22565
-0.23669
-0.21709
-0.19415
-0.21049
-0.24514
-0.26009
-0.22812
-0.13041
0.00863
0.19059
0.39902
0.59062
0.78427
1.06481
1.39502
1.72312
1.95634
2.07539
2.09504
2.04108
1.85667
1.43561
0.91096
0.55462
0.41513
0.37201
0.35146
0.30994
0.23919
0.14694
0.08594
0.08716
0.05643
-0.00967
-0.05542
-0.08382
-0.14175
-0.21049
-0.25322
-0.28810
-0.32335
-0.36921
-0.41103
-0.40292
-0.38825
-0.41643
-0.44846
-0.41765
-0.40354
-0.41200
-0.43738
-0.44736
-0.44251
-0.44793
-0.46255
-0.46626
-0.45914
-0.46066
-0.47875
-0.48564
-0.48501
-0.48836
-0.52110
-0.52792
-0.50587
-0.51134
-0.54368
-0.56207
-0.56678
-0.55274
-0.57620
-0.59888
-0.60546
-0.60292
-0.62160
-0.65259
-0.66084
-0.65086
-0.68213
-0.70636
-0.69566
-0.67711
-0.68322
-0.71647
-0.71801
-0.68741
-0.67037
-0.66204
-0.66471
-0.63904
-0.59735
-0.57866
-0.56717
-0.52994
-0.49749
-0.48481
-0.45488
-0.39922
-0.35459
-0.34341
-0.32838
-0.29847
-0.24543
-0.23860
-0.25458
-0.25410
-0.22096
-0.19890
-0.22729
-0.23506
-0.21372
-0.21561
-0.23214
-0.23618
-0.23044
-0.22188
-0.23537
-0.23831
-0.23631
-0.22796
-0.25862
-0.26803
-0.24394
-0.22934
-0.23541
-0.26286
-0.25831
-0.23440
-0.23707
-0.27269
-0.27512
-0.25068
-0.23931
-0.25922
-0.26072
-0.26346
-0.25714
-0.25817
-0.26219
-0.24145
-0.23201
-0.24991
-0.26458
-0.24695
-0.22821
-0.24730
-0.25716
-0.24874
-0.22251
-0.23614
-0.26296
-0.24629
-0.21990
-0.23039
-0.25170
-0.25684
-0.24494
-0.22813
-0.25406
-0.25724
-0.24471
-0.24330
-0.25701
-0.24772
-0.23282
-0.22807
-0.24495
-0.25585
-0.22573
-0.19732
-0.19734
-0.20591
-0.18841
-0.17085
-0.18321
-0.20109
-0.18846
-0.16302
-0.17058
-0.18006
-0.17284
-0.16217
-0.19686
-0.23209
-0.23392
-0.20470
-0.21959
-0.24052
-0.25245
-0.23150
-0.22293
-0.25363
-0.26855
-0.26184
-0.25283
-0.25924
-0.28711
-0.26019
-0.26075
-0.26630
-0.28777
-0.28504
-0.26715
-0.24582
-0.25013
-0.24805
-0.23631
-0.23586
-0.24050
-0.23403
-0.20298
-0.22301
-0.24084
-0.13434
0.06829
0.22500
0.32456
0.41911
0.54666
0.70520
0.90854
1.18047
1.49387
1.80376
1.98664
1.96654
1.76170
1.31181
0.82598
0.54493
0.43372
0.40418
0.37402
0.33354
0.28109
0.23215
0.16977
0.08269
0.02452
-0.01194
-0.06054
-0.12386
-0.20400
-0.23059
-0.27012
-0.31952
-0.36288
-0.37809
-0.37221
-0.41234
-0.43812
-0.43921
-0.42442
-0.44664
-0.47392
-0.46662
-0.45391
-0.46451
-0.48602
-0.50069
-0.48412
-0.47357
-0.49371
-0.52142
-0.51698
-0.51371
-0.52586
-0.55298
-0.55069
-0.54872
-0.57152
-0.58424
-0.58925
-0.58645
-0.61202
-0.63227
-0.63457
-0.62168
-0.64677
-0.68654
-0.69317
-0.67021
-0.69678
-0.72039
-0.74713
-0.72949
-0.71987
-0.74071
-0.73467
-0.71820
-0.68964
-0.69529
-0.67224
-0.63092
-0.60286
-0.58296
-0.57408
-0.53158
-0.47125
-0.44614
-0.43276
-0.40454
-0.33569
-0.32005
-0.30504
-0.31217
-0.27719
-0.24745
-0.25549
-0.26386
-0.24552
-0.23439
-0.25755
-0.26456
-0.26239
-0.25571
-0.26661
-0.26347
-0.26075
-0.25696
-0.27566
-0.28737
-0.26991
-0.25388
-0.26920
-0.30132
-0.29200
-0.27808
-0.28942
-0.30448
-0.30733
-0.28135
-0.26946
-0.28541
-0.30452
-0.29604
-0.29125
-0.30962
-0.32827
-0.31387
-0.29823
-0.29031
-0.29943
-0.30515
-0.28871
-0.29578
-0.30197
-0.27253
-0.26936
-0.27423
-0.27171
-0.26535
-0.27627
-0.31103
-0.32743
-0.32029
-0.27690
-0.29132
-0.29920
-0.29211
-0.27815
-0.26447
-0.30761
-0.30188
-0.27840
-0.23298
-0.24897
-0.25672
-0.23401
-0.21154
-0.22006
-0.25099
-0.23981
-0.21003
-0.19142
-0.21345
-0.23954
-0.24022
-0.23539
-0.24587
-0.24684
-0.24376
-0.25645
-0.28121
-0.27471
-0.26556
-0.28471
-0.30581
-0.30614
-0.28691
-0.28112
-0.27934
-0.29731
-0.28810
-0.27638
-0.29679
-0.30351
-0.29867
-0.25809
-0.25715
-0.28072
-0.28419
-0.25486
-0.24469
-0.27387
-0.25819
-0.22816
-0.13713
0.03243
0.22121
0.41403
0.59707
0.83197
1.13501
1.46903
1.75889
1.93639
2.00592
1.96833
1.73328
1.21281
0.67276
0.40244
0.36006
0.33742
0.27393
0.21657
0.18078
0.10705
0.04136
0.00200
-0.01813
-0.05573
-0.12100
-0.19285
-0.26413
-0.30073
-0.35101
-0.37572
-0.39776
-0.40643
-0.42644
-0.44854
-0.42138
-0.40626
-0.43485
-0.45800
-0.45944
-0.43919
-0.46825
-0.49336
-0.48613
-0.45320
-0.46538
-0.51122
-0.52051
-0.50781
-0.51597
-0.52461
-0.54433
-0.53198
-0.54160
-0.57461
-0.60260
-0.60411
-0.58869
-0.60496
-0.62853
-0.64355
-0.64514
-0.66997
-0.69045
-0.67051
-0.65255
-0.67380
-0.71710
-0.70670
-0.68337
-0.67259
-0.68722
-0.67777
-0.63287
-0.62029
-0.59587
-0.58658
-0.54403
-0.49891
-0.48214
-0.45467
-0.41101
-0.34849
-0.34104
-0.30602
-0.26421
-0.24450
-0.23583
-0.24838
-0.23954
-0.21879
-0.20235
-0.23359
-0.23808
-0.21405
-0.21234
-0.22748
-0.25207
-0.22722
-0.22004
-0.24826
-0.24829
-0.23467
-0.23491
-0.24513
-0.25719
-0.24890
-0.25605
-0.27324
-0.27012
-0.25402
-0.24249
-0.27531
-0.28979
-0.28506
-0.24341
-0.25573
-0.28679
-0.28201
-0.24700
-0.24020
-0.26537
-0.26583
-0.25777
-0.24435
-0.25649
-0.26886
-0.25696
-0.25268
-0.25789
-0.25165
-0.25195
-0.24269
-0.25931
-0.25833
-0.25430
-0.24225
-0.26080
-0.27018
-0.25185
-0.23777
-0.24228
-0.24926
-0.25251
-0.22616
-0.22766
-0.24090
-0.22930
-0.17489
-0.15846
-0.18758
-0.20918
-0.18213
-0.15121
-0.16042
-0.17334
-0.16193
-0.16419
-0.16748
-0.19167
-0.18569
-0.19585
-0.21726
-0.24806
-0.25347
-0.24611
-0.23543
-0.25852
-0.25926
-0.24560
-0.25243
-0.25709
-0.26054
-0.25528
-0.25494
-0.26425
-0.26712
-0.24717
-0.24072
-0.26419
-0.25751
-0.23582
-0.21038
-0.22577
-0.24316
-0.21843
-0.10048
0.09102
0.22052
0.34503
0.49302
0.65130
0.84925
1.09525
1.36053
1.65933
1.89225
1.95203
1.77522
1.25794
0.71707
0.45342
0.38815
0.35218
0.31611
0.29151
0.24951
0.19463
0.10755
0.04287
-0.00162
-0.04573
-0.12535
-0.21389
-0.25237
-0.28148
-0.31592
-0.35900
-0.38411
-0.39036
-0.39243
-0.42057
-0.42862
-0.43389
-0.42409
-0.45157
-0.46461
-0.46184
-0.46005
-0.47556
-0.49981
-0.46731
-0.47348
-0.49592
-0.50376
-0.50397
-0.49454
-0.51835
-0.55387
-0.53047
-0.52347
-0.54705
-0.59394
-0.59517
-0.58254
-0.60001
-0.61415
-0.63872
-0.63939
-0.64264
-0.67084
-0.68511
-0.68365
-0.69382
-0.69510
-0.70464
-0.68047
-0.66752
-0.67849
-0.68484
-0.64916
-0.59782
-0.57280
-0.54850
-0.50669
-0.45652
-0.43110
-0.42418
-0.38930
-0.31100
-0.28286
-0.29481
-0.28097
-0.24914
-0.24236
-0.25262
-0.25245
-0.23064
-0.21912
-0.22038
-0.23916
-0.23360
-0.23056
-0.23399
-0.24880
-0.24540
-0.22576
-0.23872
-0.26619
-0.25877
-0.23902
-0.25555
-0.28925
-0.28541
-0.24544
-0.23856
-0.24802
-0.24870
-0.24138
-0.25573
-0.27198
-0.28541
-0.27848
-0.25947
-0.26604
-0.28086
-0.28139
-0.27389
-0.27087
-0.27656
-0.25548
-0.24944
-0.26272
-0.27239
-0.27271
-0.25044
-0.25461
-0.27740
-0.27207
-0.23700
-0.25315
-0.29192
-0.28924
-0.27724
-0.24705
-0.26532
-0.26465
-0.25682
-0.25322
-0.24227
-0.24669
-0.20660
-0.19212
-0.19591
-0.19286
-0.18761
-0.17278
-0.20060
-0.21728
-0.18735
-0.15613
-0.16347
-0.20398
-0.17198
-0.14088
-0.15741
-0.21145
-0.21593
-0.20065
-0.21108
-0.22301
-0.25729
-0.25343
-0.24011
-0.25632
-0.27007
-0.24719
-0.23910
-0.27179
-0.30512
-0.27434
-0.25209
-0.25145
-0.25180
-0.25677
-0.24182
-0.23379
-0.25995
-0.26121
-0.14112
0.03712
0.17798
0.31346
0.51966
0.76378
1.03560
1.37336
1.73247
1.95119
1.94366
1.71828
1.27354
0.82545
0.52927
0.38344
0.34600
0.33844
0.25723
0.17702
0.11256
0.06053
0.00889
-0.05858
-0.09812
-0.13664
-0.17888
-0.24201
-0.30148
-0.32713
-0.36368
-0.41334
-0.44022
-0.42165
-0.42014
-0.44172
-0.47893
-0.45442
-0.44588
-0.44440
-0.44435
-0.45514
-0.46805
-0.47544
-0.48989
-0.48227
-0.50029
-0.51315
-0.52819
-0.52734
-0.51353
-0.53612
-0.55791
-0.57680
-0.55960
-0.57609
-0.60852
-0.64231
-0.62155
-0.63536
-0.65313
-0.67596
-0.67780
-0.67079
-0.67958
-0.70331
-0.70514
-0.70789
-0.69865
-0.69724
-0.68006
-0.67337
-0.66304
-0.63953
-0.60332
-0.56120
-0.53662
-0.52995
-0.52041
-0.45297
-0.39319
-0.37106
-0.35828
-0.30740
-0.27074
-0.26468
-0.25125
-0.24117
-0.20395
-0.19844
-0.20994
-0.21294
-0.19666
-0.20821
-0.21238
-0.19914
-0.19067
-0.19774
-0.21882
-0.21329
-0.20149
-0.21033
-0.25140
-0.24266
-0.21218
-0.20729
-0.21998
-0.24357
-0.22366
-0.21109
-0.22223
-0.23094
-0.23139
-0.22236
-0.21946
-0.22004
-0.20630
-0.19034
-0.21117
-0.24112
-0.22699
-0.20080
-0.21407
-0.22455
-0.22170
-0.18691
-0.18951
-0.21528
-0.22723
-0.21095
-0.19954
-0.20837
-0.19760
-0.18538
-0.19409
-0.21501
-0.21099
-0.19710
-0.18213
-0.20372
-0.21197
-0.18550
-0.17941
-0.20094
-0.19853
-0.17484
-0.14330
-0.12280
-0.14784
-0.15975
-0.13935
-0.12910
-0.14439
-0.13720
-0.10565
-0.10604
-0.11598
-0.12405
-0.11459
-0.10427
-0.12324
-0.14122
-0.12050
-0.12500
-0.16140
-0.19194
-0.19714
-0.17873
-0.19824
-0.21935
-0.20757
-0.20485
-0.19107
-0.19842
-0.20443
-0.19721
-0.19549
-0.20974
-0.21475
-0.19460
-0.18701
-0.19384
-0.18626
-0.17070
-0.17117
-0.19321
-0.16395
-0.03520
0.17526
0.34390
0.49309
0.70813
0.99639
1.29624
1.58826
1.90872
2.10284
2.14108
2.03887
1.72750
1.16694
0.62769
0.36451
0.30471
0.31495
0.27873
0.19217
0.11792
0.07169
0.03536
-0.00110
-0.02704
-0.07175
-0.12538
-0.21049
-0.26869
-0.28551
-0.31440
-0.36462
-0.37986
-0.36638
-0.33888
-0.36448
-0.39410
-0.41174
-0.39124
-0.40380
-0.43973
-0.43863
-0.41675
-0.41528
-0.45546
-0.47430
-0.46204
-0.44076
-0.45692
-0.47597
-0.48392
-0.48109
-0.49896
-0.51818
-0.52824
-0.53023
-0.55640
-0.57064
-0.57977
-0.58619
-0.59347
-0.62188
-0.62815
-0.61975
-0.64251
-0.66638
-0.66865
-0.65463
-0.65425
-0.65912
-0.66790
-0.62900
-0.58592
-0.58293
-0.57638
-0.54379
-0.48589
-0.44960
-0.42398
-0.37927
-0.33043
-0.31460
-0.29882
-0.27600
-0.25334
-0.25462
-0.24967
-0.24087
-0.19807
-0.20278
-0.21583
-0.20753
-0.18954
-0.19018
-0.22687
-0.21992
-0.19621
-0.19669
-0.22452
-0.23890
-0.23177
-0.20642
-0.21868
-0.24203
-0.24537
-0.24397
-0.23905
-0.25764
-0.25788
-0.22836
-0.24005
-0.25490
-0.23891
-0.23155
-0.23492
-0.25598
-0.25729
-0.23413
-0.23150
-0.25616
-0.26463
-0.23487
-0.21166
-0.24287
-0.24749
-0.24394
-0.23234
-0.23372
-0.25065
-0.23366
-0.23542
-0.24032
-0.24079
-0.23361
-0.21927
-0.24288
-0.26389
-0.24464
-0.19750
-0.20101
-0.23920
-0.23738
-0.23131
-0.21852
-0.23227
-0.23082
-0.20527
-0.16681
-0.16255
-0.17126
-0.16048
-0.16383
-0.18080
-0.19096
-0.14942
-0.12722
-0.14340
-0.16799
-0.15458
-0.16187
-0.15503
-0.16620
-0.17419
-0.16254
-0.15822
-0.18179
-0.20817
-0.21003
-0.21736
-0.24248
-0.25564
-0.24600
-0.22938
-0.23369
-0.24938
-0.24315
-0.24270
-0.25487
-0.25719
-0.24657
-0.21869
-0.24713
-0.27021
-0.27072
-0.23067
-0.21966
-0.24891
-0.25100
-0.22549
-0.16683
-0.02021
0.11129
0.21649
0.30923
0.41551
0.58275
0.83656
1.14405
1.42126
1.72450
1.95518
2.03106
1.85335
1.44932
0.99135
0.71124
0.53604
0.40118
0.33016
0.31576
0.28845
0.19701
0.11954
0.07062
0.02736
-0.03842
-0.10394
-0.12715
-0.19301
-0.24255
-0.27922
-0.30554
-0.33867
-0.39202
-0.44121
-0.45262
-0.43081
-0.45545
-0.47294
-0.48578
-0.47487
-0.47644
-0.49415
-0.50531
-0.49190
-0.51113
-0.53827
-0.51519
-0.49668
-0.51933
-0.54715
-0.54999
-0.54366
-0.55129
-0.58175
-0.58865
-0.58411
-0.56513
-0.58051
-0.61027
-0.60690
-0.60856
-0.64046
-0.65415
-0.67634
-0.68069
-0.69516
-0.71838
-0.71209
-0.70825
-0.73123
-0.74863
-0.75954
-0.74844
-0.74415
-0.75867
-0.76326
-0.75203
-0.71977
-0.72288
-0.69718
-0.65452
-0.62575
-0.61593
-0.60652
-0.56101
-0.52404
-0.50946
-0.49565
-0.44864
-0.39431
-0.36563
-0.36402
-0.33735
-0.29745
-0.28484
-0.27819
-0.26706
-0.25506
-0.25448
-0.27177
-0.26083
-0.25173
-0.25160
-0.26950
-0.27394
-0.26642
-0.24137
-0.25474
-0.26570
-0.25423
-0.26242
-0.26913
-0.27026
-0.26220
-0.26547
-0.28678
-0.29816
-0.29134
-0.25708
-0.25816
-0.29582
-0.29671
-0.26736
-0.26401
-0.29715
-0.31483
-0.30407
-0.28796
-0.29064
-0.30146
-0.27839
-0.27743
-0.28728
-0.31119
-0.29073
-0.28367
-0.28814
-0.29921
-0.28617
-0.27514
-0.27248
-0.29128
-0.29530
-0.26951
-0.27476
-0.28084
-0.28472
-0.24345
-0.25887
-0.29615
-0.29698
-0.26851
-0.25516
-0.27666
-0.30126
-0.28354
-0.25894
-0.28132
-0.28571
-0.25857
-0.25705
-0.26908
-0.26605
-0.22651
-0.20744
-0.21214
-0.23184
-0.21294
-0.17928
-0.17125
-0.20308
-0.20155
-0.16581
-0.17460
-0.20021
-0.20818
-0.18914
-0.17512
-0.18726
-0.19901
-0.19298
-0.19877
-0.23044
-0.24961
-0.24537
-0.25518
-0.28097
-0.29981
-0.29703
-0.26441
-0.25290
-0.26604
-0.26581
-0.25851
-0.26898
-0.28788
-0.28383
-0.25417
-0.27592
-0.28943
-0.28953
-0.25596
-0.24055
-0.26365
-0.27304
-0.25658
-0.23793
-0.26906
-0.23177
-0.14306
0.00529
0.15923
0.27103
0.43749
0.61843
0.80779
1.06514
1.33576
1.64211
1.84972
1.95441
2.01615
2.00999
1.85632
1.55484
1.09350
0.66852
0.42716
0.29686
0.25245
0.25506
0.23018
0.15173
0.06841
0.03647
0.00755
-0.01656
-0.05719
-0.07632
-0.10344
-0.17453
-0.25652
-0.30245
-0.32408
-0.37835
-0.42952
-0.46501
-0.46140
-0.46776
-0.49031
-0.49927
-0.49301
-0.49239
-0.51305
-0.52398
-0.50017
-0.49333
-0.51550
-0.53600
-0.53773
-0.52282
-0.53840
-0.55251
-0.55911
-0.56783
-0.57755
-0.57341
-0.58615
-0.58938
-0.59138
-0.62155
-0.62831
-0.61348
-0.60840
-0.66042
-0.67258
-0.65366
-0.65425
-0.70079
-0.72627
-0.70328
-0.70241
-0.71628
-0.73649
-0.73643
-0.73805
-0.76715
-0.78757
-0.77600
-0.75939
-0.77068
-0.78753
-0.77703
-0.74440
-0.73565
-0.73823
-0.72065
-0.70063
-0.68132
-0.65697
-0.61812
-0.56879
-0.54046
-0.51692
-0.48307
-0.44093
-0.38639
-0.39755
-0.39260
-0.35539
-0.33825
-0.33661
-0.33015
-0.32079
-0.29385
-0.29844
-0.30834
-0.30966
-0.29452
-0.30822
-0.32108
-0.29820
-0.28181
-0.29283
-0.31234
-0.31123
-0.29009
-0.28529
-0.31470
-0.33647
-0.31786
-0.29021
-0.31160
-0.33283
-0.31988
-0.31548
-0.30883
-0.32906
-0.31214
-0.30746
-0.32525
-0.32611
-0.31512
-0.30535
-0.32521
-0.32877
-0.31313
-0.30855
-0.31559
-0.33521
-0.32519
-0.30368
-0.30772
-0.32231
-0.32586
-0.31181
-0.30982
-0.33716
-0.32892
-0.32400
-0.31343
-0.31844
-0.32678
-0.30396
-0.29776
-0.31128
-0.33364
-0.31247
-0.28871
-0.29222
-0.32659
-0.32942
-0.30044
-0.29688
-0.28749
-0.27608
-0.26137
-0.23363
-0.26986
-0.26273
-0.23305
-0.24401
-0.25706
-0.26362
-0.23113
-0.21077
-0.23323
-0.26164
-0.25207
-0.21321
-0.21864
-0.25473
-0.26489
-0.25810
-0.27312
-0.28820
-0.29855
-0.29364
-0.31332
-0.33324
-0.34123
-0.31331
-0.29916
-0.32232
-0.32073
-0.30857
-0.31046
-0.31572
-0.32486
-0.31614
-0.32407
-0.33098
-0.32537
-0.33033
-0.32146
-0.32294
-0.32369
-0.31025
-0.32057
-0.34954
-0.33981
-0.27143
-0.12377
0.05119
0.19313
0.32770
0.50703
0.72314
0.96473
1.23181
1.54477
1.80736
1.93060
1.94583
1.86987
1.65481
1.30786
0.89583
0.53684
0.34444
0.25530
0.20132
0.17324
0.13578
0.09270
0.02086
-0.03281
-0.06403
-0.11502
-0.16057
-0.18786
-0.20450
-0.23834
-0.30217
-0.35849
-0.38569
-0.39843
-0.43646
-0.47901
-0.47996
-0.48893
-0.51929
-0.53183
-0.52996
-0.52221
-0.53591
-0.55871
-0.56497
-0.53646
-0.53910
-0.56315
-0.57377
-0.57102
-0.56304
-0.58288
-0.60518
-0.59841
-0.59780
-0.62048
-0.61869
-0.60201
-0.59789
-0.64379
-0.66903
-0.63943
-0.62636
-0.65921
-0.68828
-0.68935
-0.68155
-0.69189
-0.73012
-0.73673
-0.72834
-0.75962
-0.76846
-0.77047
-0.73984
-0.75995
-0.77953
-0.78335
-0.75287
-0.74809
-0.76808
-0.76692
-0.72177
-0.70747
-0.68283
-0.67478
-0.65993
-0.61262
-0.61068
-0.57600
-0.52454
-0.48409
-0.45093
-0.44625
-0.39473
-0.35038
-0.34901
-0.36104
-0.35592
-0.31667
-0.29445
-0.30934
-0.32785
-0.30546
-0.29624
-0.30743
-0.33432
-0.31475
-0.30587
-0.31586
-0.32218
-0.31457
-0.32465
-0.33928
-0.33598
-0.33018
-0.30604
-0.32791
-0.35297
-0.34953
-0.31707
-0.32015
-0.34316
-0.34516
-0.32632
-0.31760
-0.33015
-0.33670
-0.32532
-0.33114
-0.33071
-0.34415
-0.31845
-0.31967
-0.32958
-0.32741
-0.31370
-0.29229
-0.32175
-0.34426
-0.31799
-0.29479
-0.29660
-0.33461
-0.32914
-0.30221
-0.30661
-0.33244
-0.33110
-0.31021
-0.30938
-0.32213
-0.33902
-0.32682
-0.30340
-0.33082
-0.32614
-0.30966
-0.31567
-0.32172
-0.31359
-0.28621
-0.28641
-0.27588
-0.26516
-0.22736
-0.20447
-0.23510
-0.25125
-0.24721
-0.21042
-0.21380
-0.23922
-0.22108
-0.19999
-0.22981
-0.24044
-0.24624
-0.24153
-0.22561
-0.26909
-0.29757
-0.29205
-0.29068
-0.30720
-0.33081
-0.32472
-0.29503
-0.29092
-0.29751
-0.29318
-0.28806
-0.31477
-0.33101
-0.31958
-0.29307
-0.30150
-0.30970
-0.29632
-0.26619
-0.26932
-0.31231
-0.31815
-0.25354
-0.12631
0.04256
0.20616
0.37982
0.56886
0.80500
1.09634
1.43795
1.74690
1.91321
1.94275
1.90143
1.72247
1.23927
0.72159
0.45333
0.34528
0.28445
0.24055
0.20879
0.16746
0.08869
0.01218
-0.02677
-0.02748
-0.06504
-0.15262
-0.21806
-0.27594
-0.31818
-0.38009
-0.43761
-0.44197
-0.44490
-0.45707
-0.47640
-0.48455
-0.47600
-0.48906
-0.49125
-0.49118
-0.48649
-0.51047
-0.52870
-0.52818
-0.51473
-0.52854
-0.55800
-0.55833
-0.54173
-0.54416
-0.57144
-0.59212
-0.58812
-0.57854
-0.60799
-0.63578
-0.62795
-0.64195
-0.67061
-0.67594
-0.67821
-0.67468
-0.70876
-0.73122
-0.72578
-0.71390
-0.72906
-0.75233
-0.73876
-0.72238
-0.73050
-0.75694
-0.74862
-0.71486
-0.69793
-0.70671
-0.69593
-0.66544
-0.62022
-0.59895
-0.56918
-0.53371
-0.48100
-0.43190
-0.41309
-0.38902
-0.34909
-0.35010
-0.33544
-0.31400
-0.29229
-0.28820
-0.30615
-0.30950
-0.27351
-0.27063
-0.30060
-0.30102
-0.28374
-0.28766
-0.31108
-0.33557
-0.31342
-0.30523
-0.30508
-0.31634
-0.32904
-0.28671
-0.29235
-0.32263
-0.33772
-0.31030
-0.30924
-0.33034
-0.35247
-0.33805
-0.32685
-0.33792
-0.33469
-0.30819
-0.31264
-0.33496
-0.32643
-0.31463
-0.31709
-0.34490
-0.33117
-0.31161
-0.30398
-0.33219
-0.33233
-0.30588
-0.29368
-0.30858
-0.32682
-0.31221
-0.30218
-0.30973
-0.32286
-0.31189
-0.27630
-0.26971
-0.30883
-0.33185
-0.31025
-0.29846
-0.30862
-0.31576
-0.32149
-0.28844
-0.30390
-0.30983
-0.29117
-0.27462
-0.27919
-0.27188
-0.24346
-0.23022
-0.25080
-0.25478
-0.24099
-0.20974
-0.22133
-0.23767
-0.21801
-0.20255
-0.22562
-0.25996
-0.25870
-0.23192
-0.23254
-0.28716
-0.29456
-0.26797
-0.27157
-0.31985
-0.34096
-0.31519
-0.30000
-0.30971
-0.30621
-0.28325
-0.29822
-0.29805
-0.28971
-0.28412
-0.26511
-0.27452
-0.26575
-0.25793
-0.25687
-0.26344
-0.27555
-0.26194
-0.20229
-0.08613
0.06602
0.22034
0.42291
0.62178
0.86060
1.13204
1.40910
1.65090
1.78058
1.80541
1.76601
1.54779
1.08228
0.61884
0.37408
0.29889
0.26720
0.22650
0.16978
0.11543
0.04740
0.01054
-0.01166
-0.03255
-0.09703
-0.16474
-0.23841
-0.27930
-0.30687
-0.36614
-0.41998
-0.42719
-0.41472
-0.43556
-0.46687
-0.46578
-0.44657
-0.46490
-0.48509
-0.47582
-0.46041
-0.47633
-0.50356
-0.50641
-0.49886
-0.51522
-0.53154
-0.52658
-0.52423
-0.51284
-0.55000
-0.56335
-0.54335
-0.55303
-0.59547
-0.61351
-0.60289
-0.60841
-0.63485
-0.66249
-0.65808
-0.65190
-0.66696
-0.70381
-0.71497
-0.70479
-0.70982
-0.74252
-0.74239
-0.71750
-0.70772
-0.70507
-0.71935
-0.69327
-0.67879
-0.67922
-0.64359
-0.58132
-0.52852
-0.50915
-0.49550
-0.43449
-0.39185
-0.37768
-0.36845
-0.32480
-0.28482
-0.28799
-0.29945
-0.28558
-0.25579
-0.26029
-0.28111
-0.27754
-0.27313
-0.27421
-0.28041
-0.27477
-0.26218
-0.27704
-0.29972
-0.29300
-0.28866
-0.27810
-0.30259
-0.31498
-0.28224
-0.28039
-0.31832
-0.31298
-0.29906
-0.27227
-0.28769
-0.31842
-0.30344
-0.28344
-0.29607
-0.31553
-0.30678
-0.28243
-0.28473
-0.30330
-0.32132
-0.30246
-0.27649
-0.28986
-0.30727
-0.29075
-0.27682
-0.30007
-0.31933
-0.30010
-0.28264
-0.30695
-0.32156
-0.31116
-0.29864
-0.28441
-0.30682
-0.30490
-0.29314
-0.28385
-0.29997
-0.30405
-0.28438
-0.28674
-0.28772
-0.27652
-0.25293
-0.24550
-0.24459
-0.24443
