-0.22978
-0.29309
-0.24783
-0.25567
-0.26606
-0.26421
-0.22666
-0.21743
-0.24211
-0.24109
-0.23107
-0.22302
-0.23440
-0.23968
-0.23694
-0.22573
-0.23726
-0.25957
-0.24297
-0.24726
-0.24923
-0.25979
-0.24691
-0.23608
-0.23885
-0.25412
-0.26248
-0.24324
-0.24257
-0.25642
-0.24896
-0.23074
-0.23275
-0.25194
-0.27474
-0.26962
-0.25984
-0.26656
-0.28130
-0.26416
-0.23056
-0.22638
-0.23629
-0.24699
-0.22240
-0.22060
-0.24391
-0.21580
-0.18761
-0.19811
-0.22610
-0.21692
-0.20001
-0.20553
-0.23318
-0.24271
-0.22863
-0.21987
-0.24092
-0.25868
-0.23927
-0.22641
-0.24394
-0.24913
-0.24933
-0.23514
-0.23767
-0.25691
-0.22888
-0.22861
-0.24624
-0.26205
-0.25092
-0.24233
-0.24137
-0.24280
-0.24653
-0.19812
-0.15688
-0.13480
-0.08963
0.01777
0.21632
0.39599
0.62235
0.88919
1.13899
1.34804
1.47081
1.42904
1.19587
0.81827
0.43397
0.16918
0.01534
-0.07558
-0.10934
-0.11842
-0.11976
-0.15465
-0.18972
-0.21886
-0.22817
-0.23155
-0.25396
-0.25968
-0.24794
-0.24270
-0.25782
-0.27220
-0.26084
-0.25756
-0.27515
-0.30345
-0.29877
-0.28236
-0.30375
-0.32191
-0.30632
-0.29010
-0.29845
-0.32529
-0.30261
-0.28078
-0.27149
-0.28028
-0.25986
-0.22589
-0.20350
-0.22037
-0.23052
-0.19369
-0.17851
-0.18426
-0.17803
-0.16558
-0.14143
-0.12795
-0.10925
-0.06726
-0.03281
-0.03651
-0.04000
-0.01128
-0.00662
-0.03116
-0.05554
-0.05435
-0.06970
-0.09218
-0.13185
-0.15003
-0.15824
-0.18603
-0.21646
-0.24415
-0.24825
-0.24253
-0.26748
-0.28795
-0.28710
-0.28223
-0.28977
-0.30327
-0.29667
-0.27640
-0.28968
-0.30155
-0.28304
-0.28713
-0.27700
-0.29170
-0.29163
-0.27810
-0.27239
-0.29166
-0.28895
-0.27659
-0.26959
-0.28451
-0.27419
-0.26146
-0.23185
-0.22647
-0.22604
-0.20485
-0.19282
-0.20035
-0.20672
-0.20159
-0.19878
-0.21048
-0.22136
-0.20869
-0.20837
-0.21774
-0.22551
-0.22233
-0.19486
-0.19583
-0.22090
-0.20552
-0.19846
-0.20402
-0.23279
-0.24222
-0.22588
-0.22577
-0.24903
-0.27099
-0.24991
-0.23030
-0.24249
-0.25185
-0.25739
-0.24284
-0.25546
-0.27870
-0.28108
-0.27017
-0.28329
-0.30204
-0.29977
-0.28785
-0.28541
-0.28825
-0.28138
-0.24666
-0.25422
-0.28274
-0.27733
-0.28499
-0.27179
-0.30593
-0.29788
-0.26379
-0.25891
-0.27074
-0.27499
-0.26816
-0.25938
-0.24800
-0.26736
-0.25527
-0.23717
-0.23597
-0.25304
-0.24936
-0.22837
-0.23142
-0.24588
-0.25269
-0.23336
-0.21911
-0.24181
-0.25675
-0.25558
-0.24647
-0.26121
-0.27717
-0.25203
-0.24958
-0.25364
-0.27372
-0.25038
-0.24479
-0.24524
-0.25638
-0.24471
-0.18230
-0.13980
-0.11208
-0.01639
0.13595
0.32038
0.52218
0.75893
1.00963
1.20735
1.36902
1.41049
1.28061
0.96221
0.55017
0.21001
0.02251
-0.09428
-0.15394
-0.15890
-0.16313
-0.19819
-0.23656
-0.26528
-0.27808
-0.25779
-0.27546
-0.30901
-0.32346
-0.30351
-0.30327
-0.33906
-0.33867
-0.32037
-0.33006
-0.34468
-0.34572
-0.33912
-0.33150
-0.36199
-0.36999
-0.32902
-0.32612
-0.32771
-0.34343
-0.28667
-0.24471
-0.24625
-0.23303
-0.21030
-0.18007
-0.17676
-0.17417
-0.17549
-0.13364
-0.12889
-0.14488
-0.13446
-0.10735
-0.09407
-0.09834
-0.10570
-0.08527
-0.06589
-0.06081
-0.05439
-0.03409
-0.02202
-0.06200
-0.09073
-0.09049
-0.09910
-0.13338
-0.17898
-0.19770
-0.20046
-0.22662
-0.26081
-0.27389
-0.26654
-0.28781
-0.31631
-0.30874
-0.29345
-0.29417
-0.29790
-0.29293
-0.28755
-0.27989
-0.30120
-0.30377
-0.27415
-0.27324
-0.28364
-0.30690
-0.29720
-0.26088
-0.27760
-0.28092
-0.26873
-0.25420
-0.25409
-0.26275
-0.24836
-0.23766
-0.24206
-0.27484
-0.26491
-0.26498
-0.27365
-0.30030
-0.31005
-0.28649
-0.26746
-0.28595
-0.29417
-0.28208
-0.28091
-0.28882
-0.29695
-0.28409
-0.26429
-0.26789
-0.27134
-0.25195
-0.24959
-0.24791
-0.26245
-0.25752
-0.23872
-0.24137
-0.26602
-0.26617
-0.25413
-0.24708
-0.26956
-0.28222
-0.26901
-0.23846
-0.24733
-0.23510
-0.19157
-0.16078
-0.16506
-0.15635
-0.12239
-0.09270
-0.08286
-0.05965
0.01579
0.19891
0.38232
0.57634
0.81648
1.06458
1.27755
1.44106
1.46713
1.26779
0.85018
0.41640
0.10513
-0.10298
-0.23140
-0.23279
-0.19779
-0.17970
-0.19861
-0.24406
-0.27347
-0.27416
-0.28107
-0.30193
-0.31099
-0.30816
-0.30936
-0.31845
-0.34680
-0.35330
-0.33596
-0.32984
-0.34623
-0.35089
-0.32103
-0.29937
-0.29619
-0.30985
-0.28476
-0.27868
-0.29495
-0.30856
-0.28862
-0.27215
-0.28089
-0.30215
-0.28306
-0.26655
-0.27415
-0.28061
-0.27630
-0.24538
-0.22954
-0.22290
-0.20973
-0.16982
-0.16596
-0.16056
-0.14057
-0.12049
-0.09071
-0.11521
-0.11947
-0.08736
-0.08517
-0.10772
-0.12008
-0.12938
-0.13610
-0.16396
-0.19017
-0.20678
-0.21057
-0.23903
-0.25704
-0.25878
-0.24654
-0.26195
-0.29428
-0.27559
-0.26581
-0.27179
-0.29059
-0.30563
-0.30621
-0.31111
-0.31563
-0.34752
-0.33230
-0.33279
-0.34246
-0.33971
-0.32078
-0.31025
-0.32431
-0.33549
-0.32104
-0.29831
-0.30116
-0.30282
-0.27220
-0.27328
-0.26396
-0.29036
-0.29605
-0.26663
-0.27687
-0.29530
-0.29761
-0.27849
-0.28636
-0.33541
-0.31554
-0.28414
-0.27040
-0.29110
-0.30434
-0.29465
-0.29479
-0.32267
-0.34290
-0.32406
-0.32837
-0.32677
-0.32707
-0.30496
-0.29782
-0.31658
-0.35403
-0.34167
-0.34010
-0.34037
-0.34641
-0.35613
-0.33596
-0.32548
-0.34065
-0.34029
-0.31703
-0.31577
-0.31888
-0.31069
-0.28247
-0.27997
-0.31070
-0.33325
-0.32033
-0.29787
-0.31125
-0.32866
-0.32571
-0.30480
-0.30400
-0.32854
-0.31120
-0.27702
-0.27138
-0.28658
-0.29625
-0.27236
-0.28736
-0.31284
-0.31411
-0.30471
-0.31394
-0.33472
-0.33147
-0.32010
-0.33060
-0.33488
-0.35034
-0.34272
-0.33196
-0.33779
-0.35879
-0.34034
-0.30404
-0.29374
-0.31034
-0.30823
-0.27254
-0.28686
-0.28776
-0.26774
-0.23479
-0.22361
-0.25935
-0.27599
-0.26617
-0.26410
-0.28065
-0.29087
-0.27990
-0.29033
-0.27805
-0.28817
-0.29134
-0.28068
-0.28146
-0.30130
-0.29474
-0.28950
-0.28153
-0.30521
-0.31342
-0.30918
-0.30524
-0.32331
-0.32721
-0.31458
-0.32040
-0.32873
-0.33018
-0.31376
-0.31185
-0.32482
-0.33877
-0.32852
-0.29322
-0.30007
-0.30058
-0.26878
-0.22884
-0.18553
-0.15177
-0.05675
0.13165
0.34029
0.56321
0.82068
1.07164
1.31942
1.48533
1.47572
1.26755
0.92996
0.55170
0.24450
0.04220
-0.09099
-0.16043
-0.17753
-0.15865
-0.17592
-0.23808
-0.27932
-0.29203
-0.28587
-0.31582
-0.33883
-0.34062
-0.33727
-0.34474
-0.37061
-0.37895
-0.36095
-0.35556
-0.39290
-0.39351
-0.37952
-0.38271
-0.39403
-0.40994
-0.38754
-0.37662
-0.38959
-0.37958
-0.36406
-0.34385
-0.33657
-0.32916
-0.29373
-0.26562
-0.25522
-0.27942
-0.26408
-0.23831
-0.24511
-0.24081
-0.22744
-0.17531
-0.16166
-0.14751
-0.14142
-0.11555
-0.11228
-0.10690
-0.11218
-0.08412
-0.07321
-0.09432
-0.10709
-0.09315
-0.08584
-0.11194
-0.15039
-0.15233
-0.14915
-0.18291
-0.22130
-0.23388
-0.22746
-0.24933
-0.28465
-0.30529
-0.28282
-0.28466
-0.30195
-0.32074
-0.29757
-0.29198
-0.30845
-0.31391
-0.29250
-0.27519
-0.30373
-0.31112
-0.29313
-0.27781
-0.28934
-0.30876
-0.30621
-0.28265
-0.29235
-0.31355
-0.29636
-0.26888
-0.26998
-0.28214
-0.26159
-0.24203
-0.24845
-0.26326
-0.27623
-0.25493
-0.25057
-0.27768
-0.29026
-0.28291
-0.27738
-0.29033
-0.30921
-0.29755
-0.28897
-0.31069
-0.33580
-0.31573
-0.32643
-0.31910
-0.32554
-0.31574
-0.28559
-0.29035
-0.29668
-0.28680
-0.25663
-0.27041
-0.28277
-0.27757
-0.25799
-0.24399
-0.26307
-0.22787
-0.16783
-0.14118
-0.10633
-0.00215
0.17227
0.33470
0.49830
0.69294
0.92154
1.11747
1.24495
1.23555
1.11449
0.85523
0.47079
0.17955
0.00604
-0.09605
-0.16455
-0.20847
-0.21796
-0.22819
-0.27487
-0.32766
-0.34339
-0.34182
-0.36673
-0.39150
-0.40289
-0.39270
-0.39602
-0.41180
-0.42840
-0.41854
-0.40694
-0.42212
-0.42494
-0.42362
-0.40262
-0.39730
-0.41922
-0.41970
-0.39437
-0.39317
-0.42073
-0.41584
-0.38162
-0.38776
-0.40307
-0.38593
-0.34088
-0.33229
-0.33826
-0.32950
-0.30083
-0.29121
-0.29253
-0.29794
-0.27587
-0.25749
-0.25498
-0.25338
-0.24396
-0.22825
-0.22385
-0.23102
-0.21307
-0.19003
-0.17967
-0.19008
-0.19970
-0.19728
-0.20106
-0.22173
-0.24906
-0.25556
-0.26286
-0.29309
-0.31152
-0.30278
-0.31087
-0.31913
-0.33719
-0.33617
-0.32883
-0.35428
-0.37158
-0.37295
-0.37235
-0.38744
-0.39011
-0.39630
-0.38063
-0.38177
-0.39120
-0.37288
-0.33902
-0.33857
-0.35484
-0.36691
-0.33609
-0.33192
-0.36987
-0.38055
-0.35741
-0.34265
-0.36395
-0.37398
-0.36738
-0.34111
-0.34389
-0.36882
-0.37252
-0.35945
-0.36713
-0.38688
-0.37534
-0.35473
-0.35938
-0.37570
-0.36083
-0.34461
-0.35246
-0.36882
-0.33981
-0.31472
-0.31967
-0.34325
-0.35002
-0.33327
-0.33397
-0.34850
-0.36934
-0.35480
-0.32050
-0.33512
-0.34473
-0.32284
-0.30631
-0.31229
-0.33746
-0.33448
-0.32315
-0.33281
-0.35077
-0.35235
-0.32465
-0.32045
-0.34599
-0.35220
-0.32279
-0.32702
-0.34305
-0.35334
-0.33783
-0.31841
-0.34050
-0.33603
-0.31203
-0.29565
-0.30869
-0.29933
-0.28529
-0.23993
-0.22306
-0.18602
-0.03862
0.16814
0.37337
0.58871
0.81159
1.05987
1.27266
1.39009
1.31801
1.11921
0.75229
0.32340
0.01757
-0.17488
-0.27321
-0.28293
-0.27986
-0.28436
-0.29747
-0.34379
-0.37506
-0.37316
-0.36988
-0.38948
-0.40572
-0.41121
-0.38656
-0.39770
-0.41880
-0.41190
-0.38777
-0.37692
-0.40724
-0.41145
-0.39378
-0.37819
-0.38225
-0.38741
-0.36177
-0.35767
-0.36766
-0.36938
-0.36144
-0.34491
-0.33716
-0.34139
-0.32341
-0.32600
-0.32510
-0.34972
-0.33710
-0.31929
-0.32031
-0.34199
-0.32702
-0.29087
-0.28084
-0.30424
-0.29821
-0.26683
-0.23375
-0.24931
-0.24653
-0.20843
-0.19392
-0.17907
-0.15746
-0.14316
-0.13823
-0.15809
-0.18583
-0.17299
-0.17360
-0.18833
-0.21127
-0.21802
-0.23112
-0.24551
-0.26695
-0.26655
-0.27609
-0.28994
-0.30975
-0.31357
-0.29148
-0.29165
-0.30306
-0.30830
-0.30070
-0.31154
-0.33393
-0.33658
-0.33557
-0.33772
-0.34794
-0.35756
-0.35275
-0.33570
-0.34583
-0.36756
-0.35008
-0.33435
-0.33786
-0.36269
-0.35767
-0.32970
-0.32402
-0.33125
-0.32135
-0.26787
-0.23796
-0.22687
-0.17319
-0.08869
0.01233
0.14362
0.33046
0.55140
0.76943
0.97211
1.16674
1.33236
1.41697
1.33027
1.08736
0.77254
0.43843
0.15312
-0.02551
-0.13676
-0.19248
-0.21251
-0.24515
-0.28910
-0.31384
-0.33677
-0.36659
-0.40183
-0.40878
-0.40855
-0.44180
-0.46591
-0.45995
-0.44590
-0.46873
-0.49580
-0.48847
-0.46175
-0.47034
-0.49863
-0.49081
-0.45145
-0.45022
-0.45255
-0.44403
-0.42460
-0.43046
-0.43942
-0.43825
-0.40874
-0.39433
-0.40008
-0.38297
-0.36227
-0.33840
-0.33834
-0.34838
-0.32474
-0.31855
-0.32033
-0.30765
-0.29121
-0.27650
-0.29674
-0.29068
-0.27421
-0.25371
-0.26642
-0.27103
-0.26443
-0.25309
-0.25022
-0.26474
-0.26999
-0.26907
-0.27414
-0.30116
-0.31711
-0.31500
-0.32202
-0.34617
-0.36882
-0.35816
-0.35313
-0.37736
-0.38240
-0.37990
-0.36619
-0.37386
-0.37975
-0.35783
-0.33259
-0.32333
-0.33286
-0.33149
-0.31134
-0.31479
-0.32719
-0.33084
-0.30234
-0.29755
-0.31799
-0.32996
-0.31279
-0.30289
-0.31270
-0.33781
-0.32879
-0.31266
-0.33061
-0.34352
-0.33946
-0.31812
-0.34475
-0.36755
-0.34908
-0.32975
-0.33715
-0.36665
-0.36615
-0.35923
-0.34747
-0.36538
-0.36887
-0.36095
-0.35057
-0.37566
-0.39903
-0.38237
-0.35208
-0.35937
-0.36140
-0.35407
-0.33407
-0.34709
-0.36757
-0.35438
-0.34235
-0.35887
-0.35750
-0.32853
-0.30312
-0.31308
-0.33395
-0.34324
-0.33754
-0.33032
-0.35628
-0.35787
-0.34890
-0.34709
-0.37242
-0.38269
-0.36621
-0.34427
-0.36907
-0.37274
-0.35789
-0.34658
-0.35666
-0.36450
-0.35185
-0.33310
-0.34296
-0.36638
-0.35783
-0.33735
-0.33222
-0.35678
-0.35956
-0.32945
-0.31421
-0.31170
-0.29748
-0.26409
-0.23465
-0.21968
-0.17139
-0.02808
0.15457
0.32400
0.53171
0.77610
0.99706
1.18595
1.29460
1.26139
1.10378
0.80085
0.39151
0.10360
-0.07422
-0.19614
-0.24736
-0.24264
-0.24832
-0.27823
-0.33482
-0.38096
-0.37238
-0.39000
-0.42190
-0.43253
-0.42224
-0.40857
-0.41590
-0.42078
-0.40987
-0.39917
-0.41791
-0.43543
-0.42140
-0.40970
-0.40930
-0.40672
-0.39498
-0.36752
-0.36905
-0.39114
-0.38662
-0.37528
-0.37951
-0.38947
-0.39607
-0.37290
-0.38174
-0.39607
-0.39166
-0.38417
-0.36153
-0.37542
-0.38349
-0.37317
-0.33826
-0.35041
-0.35464
-0.32770
-0.29556
-0.30261
-0.32024
-0.28730
-0.25701
-0.25787
-0.25721
-0.24702
-0.22329
-0.22171
-0.25768
-0.25494
-0.23970
-0.25548
-0.29050
-0.30699
-0.29321
-0.30488
-0.32891
-0.33959
-0.33582
-0.31928
-0.33840
-0.33971
-0.34114
-0.33632
-0.35143
-0.37192
-0.37359
-0.36436
-0.36603
-0.40502
-0.39153
-0.36656
-0.37373
-0.39492
-0.40082
-0.38376
-0.37030
-0.40183
-0.40869
-0.36581
-0.34316
-0.35533
-0.34832
-0.32440
-0.30737
-0.32729
-0.33157
-0.29998
-0.29628
-0.30101
-0.32330
-0.29646
-0.26871
-0.28587
-0.30358
-0.31714
-0.28725
-0.28948
-0.30190
-0.30548
-0.28157
-0.26666
-0.27739
-0.25418
-0.21632
-0.17005
-0.13565
-0.04624
0.09517
0.26109
0.39621
0.54738
0.77685
0.97495
1.09744
1.11925
1.00752
0.76127
0.40484
0.09429
-0.07119
-0.14783
-0.22559
-0.27582
-0.29455
-0.30641
-0.34246
-0.39919
-0.41866
-0.41207
-0.43193
-0.46335
-0.47028
-0.46388
-0.44701
-0.47706
-0.48108
-0.47277
-0.47882
-0.47267
-0.48082
-0.46592
-0.43486
-0.42710
-0.44642
-0.44448
-0.43670
-0.44305
-0.45370
-0.43639
-0.41333
-0.40088
-0.41829
-0.42596
-0.40100
-0.38770
-0.40577
-0.41565
-0.38115
-0.35773
-0.37118
-0.37770
-0.35672
-0.32702
-0.33685
-0.34263
-0.31228
-0.27380
-0.23918
-0.23781
-0.24522
-0.24078
-0.24189
-0.26441
-0.30246
-0.28636
-0.28760
-0.32312
-0.33128
-0.32688
-0.33822
-0.36437
-0.38088
-0.37012
-0.35528
-0.38002
-0.39151
-0.39048
-0.37194
-0.37863
-0.39957
-0.40640
-0.37788
-0.39113
-0.40982
-0.41064
-0.39592
-0.39215
-0.40348
-0.40837
-0.40513
-0.39965
-0.40646
-0.42290
-0.42610
-0.41518
-0.42942
-0.43792
-0.40739
-0.36056
-0.37012
-0.39213
-0.38259
-0.36838
-0.37927
-0.39327
-0.39523
-0.37413
-0.37988
-0.39532
-0.39076
-0.36874
-0.37812
-0.38849
-0.38521
-0.36572
-0.36772
-0.38202
-0.40863
-0.38440
-0.38027
-0.40296
-0.41147
-0.40215
-0.38492
-0.39268
-0.41186
-0.40385
-0.38577
-0.40792
-0.42402
-0.40837
-0.38713
-0.39106
-0.41284
-0.42186
-0.38502
-0.35842
-0.34371
-0.30480
-0.27011
-0.26086
-0.26593
-0.24101
-0.18890
-0.14610
-0.09069
0.05909
0.25926
0.48685
0.71072
0.91415
1.13585
1.29541
1.25715
1.01375
0.66337
0.28919
0.00892
-0.18466
-0.27322
-0.25225
-0.26944
-0.31893
-0.37386
-0.38970
-0.40476
-0.44976
-0.46172
-0.46479
-0.47739
-0.50323
-0.52092
-0.49428
-0.48867
-0.48450
-0.48820
-0.45357
-0.41097
-0.40707
-0.42150
-0.41664
-0.38090
-0.37937
-0.39666
-0.39053
-0.36847
-0.36370
-0.37387
-0.36518
-0.35339
-0.34916
-0.35230
-0.35553
-0.32332
-0.30256
-0.31281
-0.32360
-0.29981
-0.28276
-0.28923
-0.29543
-0.27923
-0.26808
-0.27404
-0.28196
-0.27981
-0.25804
-0.25063
-0.27350
-0.26490
-0.25994
-0.25248
-0.27083
-0.27902
-0.26144
-0.26491
-0.28902
-0.30804
-0.28206
-0.28203
-0.30774
-0.31013
-0.31235
-0.29635
-0.31910
-0.33700
-0.33063
-0.32790
-0.33028
-0.34157
-0.35545
-0.33873
-0.35287
-0.37655
-0.38025
-0.37212
-0.37472
-0.41999
-0.42201
-0.40555
-0.40195
-0.42391
-0.43319
-0.41980
-0.41679
-0.43300
-0.43592
-0.41921
-0.40314
-0.41920
-0.41920
-0.42458
-0.39573
-0.38047
-0.38173
-0.34960
-0.32894
-0.32825
-0.34393
-0.32544
-0.29748
-0.28208
-0.32806
-0.32732
-0.31310
-0.30779
-0.32199
-0.33241
-0.31926
-0.31811
-0.32896
-0.34877
-0.33253
-0.32004
-0.34959
-0.36007
-0.34001
-0.31994
-0.33699
-0.36160
-0.35015
-0.31447
-0.33967
-0.35355
-0.35567
-0.33197
-0.33823
-0.35908
-0.33912
-0.29542
-0.25778
-0.24912
-0.20878
-0.10532
0.07655
0.28601
0.52724
0.79982
1.06235
1.29259
1.40589
1.33360
1.06311
0.64744
0.21735
-0.07337
-0.23346
-0.29949
-0.29586
-0.27481
-0.27693
-0.32554
-0.35385
-0.38823
-0.37179
-0.38753
-0.40590
-0.41367
-0.40089
-0.38392
-0.41158
-0.42577
-0.40155
-0.39000
-0.39932
-0.41554
-0.41083
-0.38658
-0.41040
-0.41374
-0.40811
-0.39531
-0.40279
-0.41444
-0.40335
-0.37835
-0.38294
-0.38595
-0.37855
-0.35802
-0.35934
-0.36674
-0.36141
-0.33062
-0.31769
-0.32330
-0.31612
-0.29561
-0.28389
-0.27833
-0.27535
-0.26067
-0.24119
-0.24482
-0.24712
-0.25135
-0.23255
-0.24449
-0.26212
-0.25837
-0.26139
-0.26660
-0.30400
-0.33226
-0.31020
-0.32325
-0.33815
-0.36000
-0.35419
-0.35571
-0.36825
-0.38423
-0.36208
-0.34927
-0.36535
-0.39301
-0.39586
-0.36704
-0.37418
-0.39148
-0.37176
-0.36196
-0.36668
-0.37284
-0.36030
-0.35106
-0.34120
-0.35366
-0.35364
-0.31808
-0.31552
-0.34370
-0.35304
-0.32489
-0.31680
-0.34060
-0.33807
-0.33495
-0.32026
-0.32053
-0.32676
-0.31515
-0.32574
-0.32529
-0.34477
-0.34496
-0.33124
-0.33143
-0.34947
-0.36187
-0.35097
-0.34822
-0.37310
-0.37024
-0.34014
-0.35180
-0.34930
-0.35193
-0.33463
-0.34358
-0.35925
-0.36953
-0.36126
-0.35559
-0.37896
-0.38990
-0.38307
-0.36324
-0.37146
-0.39015
-0.39071
-0.36970
-0.38050
-0.39933
-0.39454
-0.36583
-0.35375
-0.35737
-0.36898
-0.34474
-0.33507
-0.36774
-0.37142
-0.35224
-0.34682
-0.37011
-0.38800
-0.38264
-0.36755
-0.39288
-0.40213
-0.38645
-0.36817
-0.37777
-0.38521
-0.36778
-0.34719
-0.36117
-0.37968
-0.37154
-0.35138
-0.34873
-0.36671
-0.36430
-0.34719
-0.34714
-0.36384
-0.36120
-0.34214
-0.32348
-0.33093
-0.33655
-0.28972
-0.26908
-0.24831
-0.19969
-0.12053
0.02656
0.20488
0.40291
0.66526
0.92253
1.12578
1.30812
1.37780
1.28523
0.99833
0.59620
0.26007
0.01887
-0.17221
-0.26045
-0.25260
-0.23668
-0.27036
-0.31756
-0.35154
-0.35899
-0.37111
-0.39568
-0.41089
-0.41082
-0.40752
-0.42599
-0.43999
-0.43860
-0.42638
-0.42041
-0.43927
-0.43716
-0.42015
-0.43394
-0.43251
-0.43298
-0.39806
-0.39115
-0.39732
-0.40741
-0.38393
-0.36395
-0.36599
-0.36139
-0.33957
-0.32116
-0.32438
-0.34054
-0.32433
-0.29572
-0.29886
-0.31670
-0.30444
-0.27861
-0.27552
-0.28263
-0.27206
-0.24178
-0.22907
-0.23965
-0.24243
-0.20050
-0.21033
-0.21222
-0.22261
-0.20189
-0.20337
-0.22988
-0.25205
-0.24527
-0.23553
-0.26664
-0.30367
-0.31476
-0.28920
-0.30993
-0.34149
-0.33711
-0.31334
-0.32094
-0.34030
-0.32890
-0.30995
-0.31546
-0.34341
-0.35154
-0.33487
-0.33361
-0.34758
-0.34488
-0.33560
-0.32714
-0.35003
-0.36274
-0.33464
-0.32409
-0.34002
-0.34901
-0.33600
-0.30953
-0.31819
-0.33769
-0.34172
-0.31047
-0.31759
-0.33814
-0.32392
-0.27976
-0.29136
-0.30968
-0.32296
-0.30843
-0.29539
-0.31337
-0.30145
-0.27195
-0.27080
-0.28525
-0.30012
-0.28575
-0.25811
-0.28185
-0.30797
-0.28897
-0.28741
-0.29333
-0.32458
-0.31853
-0.29913
-0.31995
-0.33248
-0.32520
-0.31226
-0.30800
-0.32370
-0.33610
-0.30833
-0.30835
-0.34767
-0.35483
-0.32917
-0.32597
-0.33927
-0.34617
-0.32797
-0.31075
-0.31050
-0.30116
-0.27781
-0.22861
-0.21431
-0.17481
-0.04981
0.16342
0.38007
0.57844
0.81964
1.05958
1.24280
1.36446
1.34142
1.16876
0.86267
0.45903
0.14241
-0.04545
-0.14890
-0.21400
-0.22712
-0.23782
-0.26633
-0.32268
-0.36199
-0.34285
-0.34274
-0.36626
-0.39252
-0.39750
-0.37555
-0.40218
-0.41762
-0.42776
-0.40933
-0.42351
-0.44692
-0.45017
-0.42198
-0.41763
-0.43538
-0.44475
-0.41497
-0.40226
-0.40419
-0.39272
-0.36211
-0.33262
-0.34164
-0.34207
-0.33998
-0.31910
-0.31719
-0.31834
-0.29377
-0.27409
-0.28584
-0.30324
-0.29489
-0.26556
-0.27282
-0.26155
-0.25150
-0.23134
-0.22775
-0.23033
-0.23000
-0.19975
-0.21430
-0.22631
-0.24885
-0.24329
-0.24462
-0.27765
-0.30509
-0.30434
-0.30193
-0.34364
-0.35974
-0.36155
-0.35472
-0.38241
-0.40012
-0.39527
-0.36391
-0.36117
-0.38219
-0.36699
-0.34305
-0.33920
-0.36495
-0.35953
-0.34643
-0.34311
-0.36828
-0.37413
-0.34646
-0.33869
-0.36399
-0.37094
-0.34786
-0.35042
-0.37463
-0.39505
-0.39169
-0.36875
-0.38845
-0.38602
-0.37830
-0.37139
-0.37989
-0.37150
-0.38373
-0.34820
-0.35448
-0.37935
-0.39765
-0.37902
-0.37411
-0.40899
-0.41160
-0.38874
-0.38093
-0.39593
-0.39721
-0.37398
-0.35075
-0.35957
-0.35787
-0.32754
-0.29222
-0.30940
-0.33023
-0.31384
-0.28857
-0.30748
-0.31903
-0.33252
-0.31284
-0.31552
-0.35242
-0.35176
-0.33779
-0.33602
-0.35881
-0.35347
-0.34382
-0.34856
-0.35422
-0.37427
-0.36529
-0.35907
-0.37714
-0.39053
-0.37398
-0.35443
-0.37795
-0.40143
-0.40431
-0.39280
-0.41092
-0.42260
-0.41767
-0.38341
-0.39341
-0.41443
-0.40874
-0.36991
-0.33578
-0.35336
-0.34268
-0.31575
-0.30339
-0.31194
-0.31656
-0.30377
-0.30878
-0.32261
-0.33066
-0.31411
-0.29327
-0.31458
-0.34623
-0.32426
-0.30103
-0.31473
-0.32655
-0.32598
-0.31070
-0.31514
-0.33146
-0.34463
-0.33891
-0.32907
-0.34803
-0.35213
-0.33657
-0.33016
-0.35512
-0.36675
-0.36213
-0.35103
-0.36208
-0.37464
-0.35343
-0.31908
-0.31882
-0.33610
-0.31904
-0.29756
-0.29983
-0.31890
-0.30591
-0.28452
-0.29092
-0.30903
-0.32495
-0.30134
-0.29514
-0.31522
-0.30399
-0.28789
-0.27548
-0.29455
-0.30407
-0.28484
-0.24880
-0.26614
-0.27374
-0.24132
-0.19095
-0.16872
-0.15729
-0.07477
0.08629
0.26426
0.45946
0.68156
0.92697
1.12897
1.29708
1.38652
1.34878
1.11725
0.74338
0.38208
0.12529
-0.08199
-0.21940
-0.27140
-0.23030
-0.20482
-0.24211
-0.29294
-0.29052
-0.28783
-0.31141
-0.33304
-0.33270
-0.33433
-0.33841
-0.35948
-0.35837
-0.34376
-0.35311
-0.36919
-0.38599
-0.36929
-0.35280
-0.37471
-0.39297
-0.37088
-0.37355
-0.37379
-0.39001
-0.37040
-0.34351
-0.35795
-0.34240
-0.33515
-0.28109
-0.27710
-0.27939
-0.26009
-0.23485
-0.23772
-0.25090
-0.25320
-0.21736
-0.21317
-0.21735
-0.22838
-0.20665
-0.19527
-0.20029
-0.19717
-0.17323
-0.16236
-0.16806
-0.15878
-0.13286
-0.10268
-0.12665
-0.13471
-0.13578
-0.12455
-0.14113
-0.17073
-0.18355
-0.18230
-0.20062
-0.25003
-0.25058
-0.24792
-0.27162
-0.28263
-0.29928
-0.28760
-0.30634
-0.33252
-0.33297
-0.31544
-0.29599
-0.29475
-0.30427
-0.29485
-0.28290
-0.29205
-0.30974
-0.30371
-0.26465
-0.26973
-0.29336
-0.29035
-0.26871
-0.27800
-0.30532
-0.29500
-0.27693
-0.27755
-0.30187
-0.30388
-0.27971
-0.27816
-0.29895
-0.30302
-0.28249
-0.27648
-0.28355
-0.30387
-0.29638
-0.26903
-0.27766
-0.29989
-0.27457
-0.25116
-0.26334
-0.27444
-0.27753
-0.25964
-0.25117
-0.26211
-0.25985
-0.23726
-0.23136
-0.23174
-0.22310
-0.20900
-0.19894
-0.22539
-0.24214
-0.23066
-0.23581
-0.25457
-0.25898
-0.24289
-0.23683
-0.24193
-0.26241
-0.26225
-0.24923
-0.24624
-0.26795
-0.26871
-0.26025
-0.26869
-0.29295
-0.30728
-0.29655
-0.30713
-0.32623
-0.33971
-0.32765
-0.32145
-0.35066
-0.36563
-0.34349
-0.33186
-0.34813
-0.35337
-0.34071
-0.33022
-0.34114
-0.34454
-0.32165
-0.30302
-0.30081
-0.30425
-0.27446
-0.25013
-0.25821
-0.27643
-0.27704
-0.25756
-0.24032
-0.25864
-0.25372
-0.24680
-0.24730
-0.25430
-0.28308
-0.26180
-0.25439
-0.27686
-0.28592
-0.26831
-0.27135
-0.28640
-0.29680
-0.29388
-0.28707
-0.30381
-0.31821
-0.32049
-0.28383
-0.30762
-0.32298
-0.31524
-0.29651
-0.30267
-0.34571
-0.35428
-0.33066
-0.32616
-0.34590
-0.33229
-0.31238
-0.28843
-0.29127
-0.29717
-0.26954
-0.25269
-0.25569
-0.26823
-0.24905
-0.21415
-0.22213
-0.25293
-0.25218
-0.23188
-0.23152
-0.25519
-0.27397
-0.24277
-0.22815
-0.26812
-0.27465
-0.26418
-0.26626
-0.28623
-0.28841
-0.27549
-0.26821
-0.29337
-0.30598
-0.28463
-0.28596
-0.29355
-0.29183
-0.27785
-0.26230
-0.27664
-0.30319
-0.30674
-0.30106
-0.29839
-0.31360
-0.31579
-0.29202
-0.28641
-0.29940
-0.28613
-0.25866
-0.23494
-0.25079
-0.25254
-0.23552
-0.24569
-0.24504
-0.25312
-0.23219
-0.22118
-0.22881
-0.25569
-0.23227
-0.23343
-0.24723
-0.26546
-0.26882
-0.23913
-0.24211
-0.27444
-0.25930
-0.24424
-0.23966
-0.25788
-0.26110
-0.23537
-0.23685
-0.24982
-0.26047
-0.24566
-0.22795
-0.24392
-0.25242
-0.22874
-0.20735
-0.22670
-0.23701
-0.21071
-0.17966
-0.18108
-0.18197
-0.13243
-0.06850
-0.01192
0.09393
0.26972
0.46485
0.69006
0.88658
1.06848
1.26692
1.44240
1.47712
1.32399
1.04093
0.68535
0.35977
0.08593
-0.10606
-0.18483
-0.19736
-0.19376
-0.20003
-0.21339
-0.24437
-0.29353
-0.31692
-0.31870
-0.34924
-0.37459
-0.35618
-0.35723
-0.36096
-0.39603
-0.38508
-0.35905
-0.34807
-0.36159
-0.35689
-0.34085
-0.33694
-0.35503
-0.35672
-0.33938
-0.30863
-0.30105
-0.28652
-0.26708
-0.23373
-0.23465
-0.25647
-0.24892
-0.23242
-0.23280
-0.26058
-0.25480
-0.23486
-0.23331
-0.24819
-0.25007
-0.23400
-0.21704
-0.24201
-0.24165
-0.20589
-0.18493
-0.19471
-0.19228
-0.18947
-0.16330
-0.17736
-0.17474
-0.15764
-0.13542
-0.16400
-0.17692
-0.17526
-0.15465
-0.16831
-0.19152
-0.20789
-0.20109
-0.21227
-0.24234
-0.25221
-0.25180
-0.26914
-0.29076
-0.29569
-0.29417
-0.29181
-0.28196
-0.29949
-0.27002
-0.27844
-0.30903
-0.32386
-0.31368
-0.29537
-0.30777
-0.32601
-0.32672
-0.30762
-0.31750
-0.33046
-0.32517
-0.29039
-0.29835
-0.31683
-0.31957
-0.29718
-0.28367
-0.29514
-0.29286
-0.26326
-0.25921
-0.27565
-0.29814
-0.28736
-0.26549
-0.28163
-0.30232
-0.29975
-0.25722
-0.27492
-0.27403
-0.26012
-0.24250
-0.24932
-0.25994
-0.25299
-0.22399
-0.22198
-0.24533
-0.23837
-0.22595
-0.23263
-0.25463
-0.26784
-0.24877
-0.22971
-0.27129
-0.28425
-0.27620
-0.25855
-0.28512
-0.32151
-0.30872
-0.27154
-0.28540
-0.31544
-0.29799
-0.27745
-0.27635
-0.29716
-0.29846
-0.28733
-0.28810
-0.31782
-0.30436
-0.28756
-0.28667
-0.28630
-0.30110
-0.27703
-0.27133
-0.27773
-0.29927
-0.29718
-0.27210
-0.29618
-0.32548
-0.32310
-0.29189
-0.29822
-0.31705
-0.29342
-0.27484
-0.26128
-0.28848
-0.30897
-0.27042
-0.26594
-0.29137
-0.29082
-0.28215
-0.27079
-0.29652
-0.30565
-0.28940
-0.29050
-0.31174
-0.30791
-0.28210
-0.26903
-0.27374
-0.29172
-0.29797
-0.28057
-0.27591
-0.29402
-0.28689
-0.27340
-0.25832
-0.26111
-0.25212
-0.23157
-0.22166
-0.24933
-0.25202
-0.22320
-0.22011
-0.24008
-0.23165
-0.23329
-0.22386
-0.21984
-0.24382
-0.20569
-0.16159
-0.13646
-0.10094
0.03965
0.24562
0.43657
0.61264
0.83611
1.06144
1.24692
1.37018
1.34291
1.16859
0.81534
0.41056
0.11688
-0.04887
-0.14451
-0.20198
-0.19856
-0.19155
-0.22086
-0.25032
-0.27603
-0.27919
-0.25394
-0.27147
-0.29985
-0.30296
-0.30172
-0.32031
-0.33831
-0.34131
-0.32807
-0.32057
-0.34580
-0.34844
-0.32185
-0.32090
-0.33755
-0.34419
-0.32320
-0.30887
-0.33776
-0.33944
-0.33021
-0.31369
-0.33199
-0.32358
-0.29950
-0.26299
-0.24854
-0.26796
-0.24304
-0.21331
-0.20232
-0.19748
-0.18216
-0.15323
-0.12167
-0.12010
-0.09804
-0.07419
-0.04944
-0.06282
-0.06487
-0.04270
-0.03669
-0.04543
-0.07268
-0.07098
-0.06737
-0.10569
-0.13204
-0.14805
-0.15465
-0.17367
-0.21177
-0.21834
-0.21029
-0.24487
-0.27162
-0.28260
-0.27098
-0.28025
-0.31122
-0.31977
-0.30892
-0.30031
-0.32739
-0.33068
-0.30200
-0.28155
-0.28493
-0.29289
-0.26152
-0.25441
-0.25421
-0.27612
-0.25341
-0.23335
-0.26176
-0.28058
-0.27674
-0.25189
-0.24901
-0.26701
-0.27635
-0.25448
-0.25837
-0.28874
-0.29797
-0.28814
-0.27206
-0.29650
-0.30843
-0.29376
-0.28367
-0.28557
-0.30293
-0.28389
-0.27638
-0.28190
-0.29357
-0.28328
-0.28055
-0.28950
-0.30252
-0.31104
-0.27928
-0.28583
-0.29079
-0.27673
-0.23349
-0.20740
-0.23262
-0.21824
-0.19588
-0.18822
-0.22923
-0.22346
-0.21085
-0.20206
-0.22303
-0.22444
-0.21102
-0.19854
-0.22595
-0.23273
-0.21983
-0.21384
-0.22454
-0.21521
-0.18641
-0.13731
-0.08611
0.03705
0.24202
0.47721
0.72593
0.95941
1.19014
1.41781
1.48495
1.30850
0.95338
0.53153
0.15212
-0.13004
-0.26844
-0.24985
-0.22375
-0.26191
-0.28905
-0.27406
-0.27253
-0.29109
-0.29530
-0.28700
-0.28091
-0.29635
-0.31576
-0.31764
-0.28594
-0.27983
-0.30864
-0.29597
-0.29011
-0.30242
-0.33467
-0.33415
-0.32760
-0.30715
-0.32478
-0.33357
-0.31895
-0.32308
-0.32398
-0.34886
-0.32149
-0.28775
-0.29495
-0.29803
-0.28010
-0.26773
-0.25686
-0.25372
-0.22265
-0.18006
-0.18935
-0.19764
-0.18149
-0.15252
-0.14226
-0.15242
-0.13675
-0.11659
-0.10492
-0.13699
-0.16883
-0.14278
-0.16029
-0.20097
-0.23203
-0.23384
-0.22905
-0.27894
-0.30589
-0.30633
-0.28930
-0.31614
-0.33643
-0.33628
-0.32437
-0.33618
-0.35973
-0.35639
-0.34043
-0.34613
-0.36857
-0.37028
-0.36761
-0.34085
-0.33873
-0.36077
-0.35278
-0.34333
-0.35705
-0.37584
-0.36074
-0.34581
-0.34922
-0.35360
-0.33211
-0.31671
-0.32603
-0.35239
-0.33623
-0.31957
-0.31909
-0.33278
-0.33238
-0.31467
-0.31356
-0.33845
-0.34232
-0.32371
-0.32414
-0.33678
-0.35420
-0.34471
-0.33750
-0.35823
-0.36377
-0.36419
-0.35567
-0.35571
-0.36203
-0.35355
-0.33551
-0.35903
-0.37946
-0.35810
-0.34319
-0.33998
-0.35774
-0.34950
-0.31945
-0.31580
-0.34177
-0.33917
-0.30733
-0.28668
-0.29803
-0.29776
-0.29972
-0.29198
-0.28448
-0.28837
-0.28140
-0.28661
-0.32332
-0.31687
-0.30711
-0.29290
-0.30129
-0.32830
-0.29916
-0.29614
-0.30897
-0.32505
-0.33190
-0.31197
-0.29873
-0.30621
-0.31743
-0.31142
-0.29591
-0.31434
-0.32134
-0.30615
-0.29868
-0.32038
-0.32424
-0.30871
-0.29270
-0.30304
-0.32172
-0.30337
-0.28176
-0.29531
-0.29737
-0.27268
-0.25934
-0.27226
-0.26917
-0.23635
-0.18146
-0.13811
-0.08875
0.06858
0.30942
0.51730
0.72635
0.94357
1.15775
1.34218
1.39543
1.24978
0.94880
0.57419
0.22632
-0.03634
-0.19471
-0.20767
-0.19041
-0.21694
-0.23628
-0.26766
-0.29608
-0.34075
-0.34175
-0.33191
-0.32252
-0.35151
-0.37537
-0.36616
-0.35793
-0.38973
-0.39805
-0.37045
-0.35649
-0.36430
-0.37606
-0.35083
-0.33440
-0.34375
-0.36773
-0.35000
-0.32891
-0.35306
-0.35976
-0.36145
-0.33079
-0.32218
-0.31730
-0.29419
-0.25476
-0.25994
-0.26857
-0.24862
-0.21999
-0.20396
-0.21428
-0.20255
-0.16388
-0.14163
-0.14005
-0.14605
-0.12999
-0.10549
-0.12003
-0.14486
-0.14011
-0.13393
-0.14803
-0.17310
-0.17385
-0.17110
-0.19759
-0.23049
-0.24285
-0.24120
-0.25957
-0.28479
-0.30476
-0.29177
-0.29722
-0.32334
-0.33100
-0.31999
-0.31211
-0.34206
-0.34771
-0.34416
-0.33366
-0.34616
-0.36073
-0.34262
-0.31216
-0.30800
-0.30000
-0.26511
-0.24175
-0.23633
-0.25699
-0.24297
-0.22207
-0.22602
-0.25525
-0.26232
-0.26568
-0.25997
-0.28383
-0.29111
-0.26786
-0.27628
-0.29799
-0.30575
-0.28472
-0.29404
-0.31683
-0.32302
-0.31633
-0.30801
-0.32572
-0.34066
-0.34910
-0.33996
-0.34919
-0.37223
-0.37209
-0.34511
-0.35860
-0.37591
-0.37091
-0.32759
-0.29813
-0.31585
-0.30174
-0.29529
-0.29682
-0.31774
-0.30166
-0.27058
-0.23933
-0.24489
-0.27300
-0.25652
-0.24095
-0.26676
-0.28211
-0.28863
-0.28241
-0.28102
-0.30522
-0.30481
-0.28481
-0.29221
-0.31907
-0.31872
-0.30214
-0.30075
-0.32121
-0.32832
-0.31206
-0.30662
-0.32506
-0.33540
-0.31756
-0.30624
-0.33051
-0.34232
-0.32771
-0.31635
-0.32219
-0.33049
-0.30861
-0.28575
-0.29687
-0.32520
-0.31866
-0.30082
-0.31562
-0.31720
-0.31844
-0.30021
-0.31391
-0.33115
-0.32150
-0.27474
-0.23484
-0.26187
-0.26683
-0.26329
-0.25975
-0.27346
-0.28615
-0.27149
-0.26056
-0.27070
-0.28680
-0.28064
-0.26641
-0.26690
-0.28439
-0.29090
-0.26223
-0.26914
-0.27794
-0.25920
-0.22631
-0.20219
-0.17869
-0.14674
-0.04069
0.13251
0.30093
0.49415
0.73262
0.98203
1.16776
1.32902
1.37066
1.21464
0.88550
0.48317
0.18191
0.00641
-0.12223
-0.16748
-0.16395
-0.15290
-0.17829
-0.21894
-0.23600
-0.22850
-0.22876
-0.26505
-0.28197
-0.27246
-0.26579
-0.28767
-0.31303
-0.29549
-0.27560
-0.29751
-0.32211
-0.30953
-0.29042
-0.29974
-0.32036
-0.31403
-0.31217
-0.30971
-0.32107
-0.30258
-0.25755
-0.25261
-0.27818
-0.26113
-0.23371
-0.24718
-0.25146
-0.25619
-0.21811
-0.20535
-0.22055
-0.20794
-0.18256
-0.15566
-0.17264
-0.18285
-0.15595
-0.12703
-0.12643
-0.13102
-0.09614
-0.07322
-0.08646
-0.08736
-0.08972
-0.10076
-0.09737
-0.12574
-0.13559
-0.13925
-0.14851
-0.18995
-0.20440
-0.19040
-0.19647
-0.23976
-0.25514
-0.24003
-0.24349
-0.25778
-0.26579
-0.24665
-0.24005
-0.26528
-0.27793
-0.27291
-0.25370
-0.28346
-0.30731
-0.29096
-0.27684
-0.25213
-0.28045
-0.28215
-0.24407
-0.24418
-0.27819
-0.27271
-0.24266
-0.24461
-0.25807
-0.24919
-0.22320
-0.22244
-0.23130
-0.24939
-0.23259
-0.20471
-0.21678
-0.23314
-0.20679
-0.18064
-0.18539
-0.19967
-0.18536
-0.15995
-0.13726
-0.10885
-0.06175
0.03485
0.20831
0.39609
0.57958
0.80544
1.04166
1.21103
1.30659
1.28654
1.04654
0.66144
0.22192
-0.05700
-0.15038
-0.24383
-0.26640
-0.24768
-0.24333
-0.28075
-0.31385
-0.31390
-0.31218
-0.33886
-0.34644
-0.33576
-0.31431
-0.31918
-0.33277
-0.34004
-0.32182
-0.30934
-0.33603
-0.34099
-0.32658
-0.30299
-0.30677
-0.30139
-0.29411
-0.27881
-0.28577
-0.29069
-0.27829
-0.24149
-0.24166
-0.25480
-0.24427
-0.22204
-0.21887
-0.23510
-0.21817
-0.19014
-0.18451
-0.19593
-0.19083
-0.15739
-0.15366
-0.17675
-0.17023
-0.13434
-0.12842
-0.13980
-0.14354
-0.11947
-0.11060
-0.13570
-0.14152
-0.13407
-0.13225
-0.15707
-0.20498
-0.21243
-0.19223
-0.20423
-0.22998
-0.23035
-0.22151
-0.24393
-0.25528
-0.26558
-0.25596
-0.25828
-0.27732
-0.27077
-0.26612
-0.26002
-0.28860
-0.28416
-0.27347
-0.26042
-0.27196
-0.28539
-0.27989
-0.26974
-0.28821
-0.31225
-0.30241
-0.29219
-0.29578
-0.29764
-0.31386
-0.29101
-0.29183
-0.31485
-0.31638
-0.29341
-0.30281
-0.30731
-0.30241
-0.26964
-0.23406
-0.21970
-0.22117
-0.21120
-0.19321
-0.21382
-0.23176
-0.21921
-0.21481
-0.22302
-0.25362
-0.23032
-0.21313
-0.22121
-0.24303
-0.22963
-0.21409
-0.22609
-0.24189
-0.25240
-0.23190
-0.22937
-0.25795
-0.25904
-0.24578
-0.25387
-0.26376
-0.26751
-0.26403
-0.25108
-0.26601
-0.28632
-0.27687
-0.25781
-0.27283
-0.28207
-0.27125
-0.26742
-0.27151
-0.28571
-0.29990
-0.27992
-0.27410
-0.28356
-0.28602
-0.27410
-0.28292
-0.30161
-0.29985
-0.27317
-0.25271
-0.26275
-0.25925
-0.23421
-0.21180
-0.22651
-0.22967
-0.22360
-0.21060
-0.21560
-0.24219
-0.24053
-0.22530
-0.22024
-0.24423
-0.24439
-0.23830
-0.23156
-0.24963
-0.23882
-0.21829
-0.22092
-0.21681
-0.23262
-0.22831
-0.21392
-0.23498
-0.23111
-0.21244
-0.20546
-0.21529
-0.21486
-0.20745
-0.20512
-0.20434
-0.22007
-0.22773
-0.20863
-0.18632
-0.16220
-0.12166
-0.02536
0.13219
0.26731
0.46405
0.69263
0.88966
1.07537
1.25751
1.44370
1.46496
1.28496
0.93897
0.56546
0.26559
0.00190
-0.16912
-0.21511
-0.17480
-0.17605
-0.22133
-0.24648
-0.23662
-0.25112
-0.28766
-0.30680
-0.30074
-0.28831
-0.31686
-0.32761
-0.30569
-0.29901
-0.31757
-0.34940
-0.34386
-0.33406
-0.35228
-0.36066
-0.35676
-0.33788
-0.36119
-0.37299
-0.36300
-0.34948
-0.34528
-0.34470
-0.33438
-0.31259
-0.29421
-0.30483
-0.29812
-0.28586
-0.27719
-0.30062
-0.29662
-0.25003
-0.24716
-0.22133
-0.22212
-0.19736
-0.17659
-0.18782
-0.18062
-0.15758
-0.14128
-0.14774
-0.16907
-0.15804
-0.12621
-0.13465
-0.13358
-0.12319
-0.10653
-0.11904
-0.14928
-0.16123
-0.15351
-0.17754
-0.22191
-0.23091
-0.22843
-0.24041
-0.27191
-0.29305
-0.28117
-0.26694
-0.28619
-0.28950
-0.28515
-0.27805
-0.30360
-0.31246
-0.30827
-0.30190
-0.31585
-0.31907
-0.29546
-0.28670
-0.28078
-0.32728
-0.31156
-0.27978
-0.28914
-0.30460
-0.31050
-0.27843
-0.25293
-0.27953
-0.27113
-0.24035
-0.23456
-0.25166
-0.26525
-0.25740
-0.24995
-0.27145
-0.28528
-0.25483
-0.25661
-0.27847
-0.28811
-0.28310
-0.26651
-0.27160
-0.29892
-0.28335
-0.25460
-0.25365
-0.26554
-0.26243
-0.23656
-0.23055
-0.25420
-0.25336
-0.23191
-0.21654
-0.22534
-0.21498
-0.17802
-0.13889
-0.11847
-0.07943
0.05547
0.21710
0.36666
0.51186
0.72604
0.94631
1.10590
1.21567
1.20915
1.07203
0.77958
0.43436
0.22265
0.07363
-0.04380
-0.14351
-0.18359
-0.18765
-0.21394
-0.26961
-0.30394
-0.31037
-0.31407
-0.35424
-0.36677
-0.36301
-0.36686
-0.37409
-0.39313
-0.38607
-0.36745
-0.37596
-0.39234
-0.37999
-0.35258
-0.34747
-0.35014
-0.33761
-0.32924
-0.33516
-0.34673
-0.34633
-0.32967
-0.32016
-0.31697
-0.32306
-0.30212
-0.28697
-0.27927
-0.27369
-0.26039
-0.24762
-0.24109
-0.25066
-0.23681
-0.20046
-0.20136
-0.21766
-0.21563
-0.18943
-0.19776
-0.21242
-0.19889
-0.17894
-0.16941
-0.19206
-0.20028
-0.18107
-0.18512
-0.21732
-0.22697
-0.23257
-0.23006
-0.27147
-0.29773
-0.30862
-0.30410
-0.32709
-0.34100
-0.33537
-0.32634
-0.34155
-0.35135
-0.34105
-0.33207
-0.30653
-0.31986
-0.32645
-0.31320
-0.30097
-0.32496
-0.33451
-0.32300
-0.31385
-0.33375
-0.34588
-0.32592
-0.31596
-0.34608
-0.35572
-0.33309
-0.32233
-0.31711
-0.34163
-0.34116
-0.31676
-0.32844
-0.34082
-0.33552
-0.32751
-0.32543
-0.34481
-0.33632
-0.33008
-0.33524
-0.34087
-0.33904
-0.32707
-0.33578
-0.34898
-0.36339
-0.35319
-0.34520
-0.35633
-0.35682
-0.34035
-0.31900
-0.31214
-0.32289
-0.30739
-0.29089
-0.29300
-0.31242
-0.30330
-0.28043
-0.27424
-0.29384
-0.29315
-0.27215
-0.28069
-0.29361
-0.29055
-0.26957
-0.27444
-0.27822
-0.27737
-0.26096
-0.23451
-0.22885
-0.21665
-0.16023
-0.02684
0.08502
0.21528
0.38070
0.57659
0.75123
0.91437
1.08708
1.21883
1.17445
0.97027
0.65876
0.34565
0.12308
-0.08735
-0.19488
-0.22824
-0.22492
-0.22704
-0.26632
-0.28512
-0.29508
-0.31605
-0.33375
-0.34301
-0.33725
-0.36164
-0.37352
-0.37152
-0.36785
-0.37197
-0.38597
-0.38565
-0.37908
-0.37175
-0.39400
-0.38809
-0.37903
-0.37182
-0.37427
-0.38185
-0.36459
-0.36112
-0.35258
-0.35507
-0.34895
-0.31808
-0.32658
-0.32930
-0.31638
-0.29380
-0.29685
-0.30815
-0.29291
-0.27013
-0.27948
-0.28709
-0.26955
-0.23411
-0.23237
-0.22684
-0.21017
-0.16684
-0.14286
-0.14622
-0.14059
-0.13492
-0.13124
-0.14171
-0.15432
-0.15449
-0.16724
-0.19394
-0.22603
-0.23753
-0.23260
-0.26230
-0.30038
-0.30027
-0.31064
-0.34573
-0.36822
-0.36446
-0.34679
-0.35516
-0.38211
-0.38197
-0.36136
-0.36635
-0.38312
-0.39223
-0.35232
-0.33321
-0.33747
-0.35221
-0.34281
-0.33094
-0.35139
-0.36479
-0.34160
-0.31933
-0.34141
-0.34151
-0.32149
-0.29602
-0.28606
-0.30715
-0.30469
-0.28694
-0.29122
-0.31787
-0.32828
-0.31295
-0.30273
-0.32990
-0.34624
-0.34529
-0.34094
-0.34311
-0.34899
-0.33590
-0.32169
-0.33483
-0.35160
-0.33753
-0.31444
-0.32562
-0.35617
-0.34226
-0.33246
-0.34243
-0.35220
-0.34604
-0.32879
-0.33294
-0.33128
-0.31277
-0.30015
-0.28539
-0.29289
-0.29077
-0.27175
-0.27340
-0.30144
-0.29780
-0.27352
-0.27026
-0.27786
-0.28807
-0.27563
-0.26568
-0.28433
-0.30437
-0.30545
-0.28411
-0.29321
-0.31584
-0.32142
-0.30828
-0.29622
-0.30774
-0.29454
-0.28313
-0.28375
-0.29280
-0.30070
-0.26992
-0.25150
-0.27417
-0.29130
-0.27298
-0.24101
-0.22646
-0.22359
-0.17961
-0.11165
-0.02960
0.10852
0.31088
0.52356
0.74841
0.95054
1.15817
1.33789
1.36168
1.18661
0.87984
0.51937
0.19983
-0.04812
-0.19989
-0.23098
-0.20735
-0.22857
-0.27300
-0.28554
-0.29484
-0.33245
-0.36310
-0.37071
-0.37707
-0.39565
-0.41302
-0.40891
-0.39509
-0.39751
-0.40346
-0.40106
-0.38325
-0.37930
-0.39186
-0.37956
-0.35520
-0.35704
-0.37067
-0.36167
-0.33840
-0.32365
-0.31824
-0.29389
-0.26243
-0.23574
-0.24336
-0.24482
-0.23658
-0.21338
-0.20560
-0.22566
-0.21103
-0.18051
-0.18640
-0.19840
-0.17462
-0.15233
-0.16230
-0.17375
-0.16980
-0.15308
-0.15082
-0.16946
-0.16978
-0.16356
-0.16239
-0.18303
-0.20826
-0.19183
-0.18798
-0.21830
-0.24673
-0.23691
-0.23747
-0.26415
-0.27768
-0.29861
-0.28226
-0.29008
-0.30389
-0.30371
-0.27948
-0.28200
-0.30228
-0.29198
-0.27327
-0.27879
-0.27283
-0.28780
-0.27251
-0.25525
-0.26159
-0.25748
-0.24236
-0.22865
-0.24322
-0.25405
-0.25032
-0.22889
-0.24264
-0.25437
-0.23899
-0.22253
-0.23820
-0.25687
-0.25598
-0.23960
-0.24407
-0.26294
-0.27651
-0.25417
-0.25388
-0.28070
-0.27747
-0.25924
-0.27201
-0.27461
-0.26662
-0.25107
-0.22404
-0.23294
-0.23908
-0.22455
-0.19576
-0.20442
-0.21055
-0.18333
-0.13419
-0.09377
-0.04785
0.04922
0.22508
0.37593
0.54640
0.78876
1.00230
1.20428
1.34960
1.33527
1.17791
0.86817
0.46933
0.15038
-0.04720
-0.17046
-0.22945
-0.22212
-0.20783
-0.23258
-0.26432
-0.31104
-0.32767
-0.35518
-0.35885
-0.37660
-0.39324
-0.37988
-0.37668
-0.38998
-0.38333
-0.37205
-0.36877
-0.37991
-0.38443
-0.36290
-0.35470
-0.37423
-0.36675
-0.34659
-0.33485
-0.36521
-0.37993
-0.35763
-0.34468
-0.34698
-0.35046
-0.34363
-0.32748
-0.33102
-0.33808
-0.30174
-0.26875
-0.26563
-0.26099
-0.23935
-0.20651
-0.18688
-0.20220
-0.20331
-0.15883
-0.15177
-0.16105
-0.15393
-0.13306
-0.13164
-0.15050
-0.17713
-0.16312
-0.18006
-0.20398
-0.22701
-0.23055
-0.22551
-0.23281
-0.25986
-0.27004
-0.27014
-0.28319
-0.31345
-0.32265
-0.29665
-0.28370
-0.29770
-0.29521
-0.27856
-0.27878
-0.30744
-0.31525
-0.29611
-0.28789
-0.30129
-0.32378
-0.31152
-0.28868
-0.31023
-0.32862
-0.31120
-0.28755
-0.27912
-0.28582
-0.28158
-0.26999
-0.27812
-0.29221
-0.29240
-0.27765
-0.27465
-0.30698
-0.30279
-0.26575
-0.27177
-0.28504
-0.29436
-0.29577
-0.27139
-0.28157
-0.29732
-0.28422
-0.26280
-0.27746
-0.28481
-0.26896
-0.25759
-0.27623
-0.29475
-0.29175
-0.27535
-0.28032
-0.31517
-0.31511
-0.29842
-0.29316
-0.32838
-0.32668
-0.30552
-0.28257
-0.29979
-0.31026
-0.28554
-0.27152
-0.29642
-0.31186
-0.29265
-0.27110
-0.28674
-0.30995
-0.28572
-0.27019
-0.27493
-0.30208
-0.28010
-0.25880
-0.26137
-0.27961
-0.26405
-0.24634
-0.25012
-0.25182
-0.25564
-0.22594
-0.23490
-0.23690
-0.24584
-0.23546
-0.21172
-0.21883
-0.22493
-0.22510
-0.18947
-0.19742
-0.15716
-0.11336
-0.05189
0.06121
0.23438
0.42683
0.64307
0.86656
1.05030
1.23617
1.38471
1.32442
1.09411
0.77423
0.43087
0.19192
-0.00680
-0.13888
-0.17110
-0.15367
-0.19762
-0.25179
-0.26013
-0.26697
-0.28320
-0.29180
-0.28296
-0.28466
-0.30763
-0.32065
-0.32782
-0.32828
-0.31523
-0.32503
-0.31999
-0.27774
-0.27742
-0.29495
-0.30482
-0.28945
-0.27608
-0.30805
-0.32481
-0.28908
-0.27831
-0.29001
-0.28316
-0.26856
-0.24646
-0.24828
-0.25121
-0.24113
-0.21365
-0.21997
-0.23194
-0.22012
-0.19241
-0.19362
-0.21094
-0.19032
-0.15083
-0.13871
-0.15285
-0.13829
-0.11003
-0.09275
-0.10704
-0.10107
-0.09076
-0.07608
-0.10237
-0.13887
-0.14110
-0.14856
-0.18196
-0.20118
-0.18478
-0.16994
-0.20131
-0.22018
-0.22440
-0.21681
-0.22097
-0.25160
-0.23317
-0.22544
-0.22409
-0.25052
-0.25069
-0.23722
-0.23727
-0.23673
-0.25490
-0.24596
-0.24386
-0.24335
-0.26237
-0.25660
-0.23581
-0.25360
-0.26415
-0.24903
-0.23316
-0.22550
-0.23394
-0.22308
-0.20504
-0.19946
-0.18308
-0.15007
-0.08289
0.00473
0.15578
0.37822
0.60354
0.80999
1.01831
1.22690
1.39004
1.35829
1.11476
0.71642
0.32254
0.08475
-0.04364
-0.14122
-0.14368
-0.14670
-0.16435
-0.22032
-0.25095
-0.24842
-0.25419
-0.29540
-0.31170
-0.29838
-0.31367
-0.32935
-0.34465
-0.35705
-0.35509
-0.37447
-0.38596
-0.36463
-0.35921
-0.36307
-0.38873
-0.37181
-0.34075
-0.36077
-0.37107
-0.34348
-0.33071
-0.33684
-0.36127
-0.34977
-0.29991
-0.28801
-0.30583
-0.28986
-0.23039
-0.21374
-0.20284
-0.17747
-0.14740
-0.13678
-0.13630
-0.13307
-0.08905
-0.07272
-0.10303
-0.10422
-0.07365
-0.06670
-0.09781
-0.14582
-0.12889
-0.12187
-0.15757
-0.19388
-0.21074
-0.21005
-0.22354
-0.24785
-0.26219
-0.24242
-0.25055
-0.27583
-0.27921
-0.25761
-0.26003
-0.29242
-0.30391
-0.28141
-0.26536
-0.28570
-0.30968
-0.28398
-0.28216
-0.29692
-0.30713
-0.28322
-0.26326
-0.24773
-0.24483
-0.24832
-0.21708
-0.22895
-0.23412
-0.22315
-0.20850
-0.20888
-0.22812
-0.22871
-0.20765
-0.20903
-0.21880
-0.23774
-0.21381
-0.17934
-0.16221
-0.10123
-0.00732
0.14437
0.33486
0.52549
0.73443
0.96359
1.17240
1.28037
1.34820
1.26160
0.98299
0.59000
0.20573
-0.01346
-0.13136
-0.21074
-0.22976
-0.22167
-0.25332
-0.29995
-0.31695
-0.31348
-0.30719
-0.32683
-0.33836
-0.34122
-0.33846
-0.35228
-0.36753
-0.36258
-0.35808
-0.35314
-0.36793
-0.35577
-0.34691
-0.34943
-0.36757
-0.36991
-0.34495
-0.34274
-0.36604
-0.35591
-0.34090
-0.32760
-0.33749
-0.33981
-0.31629
-0.30527
-0.30501
-0.31510
-0.27901
-0.24862
-0.26806
-0.26799
-0.23383
-0.23072
-0.23529
-0.24547
-0.22692
-0.19712
-0.19787
-0.20733
-0.19142
-0.16347
-0.16337
-0.19326
-0.20296
-0.18446
-0.19529
-0.21959
-0.23386
-0.22794
-0.23208
-0.27220
-0.28331
-0.26989
-0.26587
-0.29371
-0.32076
-0.30840
-0.29960
-0.31560
-0.33251
-0.31636
-0.29651
-0.31113
-0.30826
-0.30090
-0.27709
-0.27294
-0.28750
-0.28810
-0.27558
-0.27031
-0.27457
-0.28607
-0.27034
-0.27076
-0.28751
-0.29383
-0.27970
-0.27536
-0.28784
-0.30923
-0.31011
-0.30520
-0.29667
-0.30065
-0.29764
-0.27118
-0.27514
-0.29397
-0.28582
-0.26533
-0.26044
-0.30460
-0.29409
-0.27529
-0.28199
-0.28937
-0.30347
-0.28870
-0.28740
-0.30349
-0.30300
-0.29674
-0.28115
-0.28690
-0.30953
-0.30024
-0.28217
-0.29361
-0.31418
-0.30943
-0.29481
-0.30465
-0.32424
-0.32861
-0.29081
-0.28924
-0.30531
-0.31345
-0.29612
-0.27394
-0.29531
-0.29034
-0.28019
-0.26216
-0.29175
-0.28434
-0.26761
-0.24413
-0.25263
-0.25732
-0.21059
-0.15476
-0.11834
-0.07621
0.06130
0.26265
0.47783
0.68693
0.91383
1.15650
1.35874
1.43437
1.33041
1.07060
0.68577
0.28229
0.02145
-0.14413
-0.20306
-0.22095
-0.21404
-0.22820
-0.25653
-0.29691
-0.35473
-0.34044
-0.33075
-0.35037
-0.37009
-0.37925
-0.36131
-0.36818
-0.40378
-0.39496
-0.38429
-0.38698
-0.40196
-0.40445
-0.38405
-0.36870
-0.38114
-0.38935
-0.36933
-0.35996
-0.38196
-0.37605
-0.35280
-0.32749
-0.34085
-0.33317
-0.32145
-0.29055
-0.29014
-0.29126
-0.28184
-0.25947
-0.24731
-0.26549
-0.26062
-0.21848
-0.21069
-0.23065
-0.22114
-0.20228
-0.19201
-0.21914
-0.22979
-0.20680
-0.20495
-0.21587
-0.23477
-0.22765
-0.21821
-0.25188
-0.28378
-0.27647
-0.26467
-0.28710
-0.32604
-0.31492
-0.30532
-0.32884
-0.36074
-0.34511
-0.31746
-0.30343
-0.30945
-0.30875
-0.27707
-0.26508
-0.27929
-0.29077
-0.26277
-0.25183
-0.26007
-0.28303
-0.27715
-0.25024
-0.25292
-0.25624
-0.23742
-0.21610
-0.24080
-0.25657
-0.26250
-0.24597
-0.25495
-0.28158
-0.28156
-0.26874
-0.26924
-0.28333
-0.29228
-0.29268
-0.30637
-0.33402
-0.32215
-0.31545
-0.31930
-0.33118
-0.34971
-0.33455
-0.33001
-0.34256
-0.36089
-0.34033
-0.32014
-0.31717
-0.32674
-0.31754
-0.30172
-0.29667
-0.29369
-0.27825
-0.24946
-0.25613
-0.25612
-0.25534
-0.23722
-0.24397
-0.26460
-0.25798
-0.25291
-0.24738
-0.27029
-0.27943
-0.26401
-0.26795
-0.29751
-0.32380
-0.29658
-0.29138
-0.29591
-0.30772
-0.30948
-0.31226
-0.30264
-0.30765
-0.29220
-0.28098
-0.27746
-0.28256
-0.27846
-0.24419
-0.22711
-0.21070
-0.15857
-0.01665
0.19732
0.40211
0.63072
0.85312
1.07886
1.27477
1.34437
1.23735
0.96539
0.59010
0.27425
0.03858
-0.14784
-0.20890
-0.23668
-0.22835
-0.24547
-0.26354
-0.30153
-0.32792
-0.32068
-0.33213
-0.34730
-0.36325
-0.35805
-0.34968
-0.38641
-0.41009
-0.39329
-0.38781
-0.39747
-0.41222
-0.39579
-0.37332
-0.39741
-0.39717
-0.40370
-0.38410
-0.38368
-0.39732
-0.37783
-0.35695
-0.36080
-0.36569
-0.35396
-0.32662
-0.32875
-0.33030
-0.31829
-0.29982
-0.29368
-0.29581
-0.30463
-0.28511
-0.27000
-0.30050
-0.30940
-0.28039
-0.27016
-0.27142
-0.28843
-0.27147
-0.24863
-0.26883
-0.27848
-0.26957
-0.25982
-0.26351
-0.29091
-0.29444
-0.27766
-0.26714
-0.27726
-0.27811
-0.27106
-0.26964
-0.30807
-0.33390
-0.31366
-0.31191
-0.32914
-0.32947
-0.30333
-0.27640
-0.27004
-0.27644
-0.27426
-0.25617
-0.25768
-0.28792
-0.28180
-0.26422
-0.27140
-0.29289
-0.28662
-0.28056
-0.26944
-0.29053
-0.30561
-0.29207
-0.29174
-0.30292
-0.31306
-0.29403
-0.28875
-0.30834
-0.33980
-0.32528
-0.30404
-0.31567
-0.34390
-0.32872
-0.29726
-0.30767
-0.31848
-0.28444
-0.21109
-0.16198
-0.12597
0.00418
0.15717
0.31255
0.45333
0.65128
0.89378
1.07640
1.17646
1.20465
1.11159
0.90655
0.58848
0.30086
0.13416
0.02739
-0.10282
-0.20074
-0.21409
-0.22352
-0.28216
-0.33203
-0.34687
-0.34197
-0.36881
-0.40421
-0.41575
-0.40975
-0.40716
-0.41618
-0.44442
-0.42178
-0.41159
-0.42873
-0.44620
-0.42897
-0.42843
-0.44407
-0.45595
-0.44958
-0.44051
-0.45210
-0.46267
-0.45210
-0.41264
-0.40437
-0.40150
-0.36343
-0.32003
-0.28475
-0.29033
-0.28745
-0.25306
-0.24104
-0.25361
-0.25557
-0.23103
-0.22249
-0.23538
-0.24794
-0.22242
-0.20468
-0.21829
-0.22717
-0.19753
-0.17351
-0.19467
-0.20220
-0.19954
-0.18713
-0.20735
-0.22808
-0.23328
-0.23409
-0.24726
-0.28278
-0.28572
-0.27784
-0.29394
-0.32633
-0.33664
-0.32812
-0.33081
-0.35446
-0.36512
-0.34470
-0.32503
-0.35323
-0.36816
-0.35413
-0.34572
-0.38150
-0.37796
-0.34662
-0.30783
-0.31124
-0.32698
-0.30930
-0.29736
-0.28231
-0.29662
-0.31070
-0.29244
-0.30063
-0.31227
-0.33013
-0.29466
-0.30674
-0.31801
-0.33133
-0.31612
-0.30466
-0.32831
-0.35180
-0.33027
-0.32382
-0.33534
-0.35100
-0.34192
-0.33893
-0.34215
-0.35683
-0.34567
-0.33501
-0.32631
-0.32939
-0.32698
-0.30885
-0.31034
-0.33091
-0.33903
-0.32767
-0.32855
-0.35462
-0.34948
-0.31681
-0.32424
-0.35180
-0.35918
-0.34899
-0.32166
-0.30321
-0.30185
-0.28825
-0.28544
-0.28877
-0.31118
-0.29021
-0.28082
-0.28317
-0.28376
-0.29106
-0.26947
-0.25888
-0.26979
-0.26889
-0.21565
-0.17532
-0.11951
0.03169
0.23561
0.45652
0.65293
0.86134
1.06618
1.23635
1.30395
1.18183
0.94743
0.58390
0.21939
-0.02640
-0.17280
-0.20318
-0.20748
-0.22539
-0.25842
-0.27732
-0.29560
-0.33071
-0.34761
-0.34297
-0.34183
-0.35654
-0.36564
-0.34374
-0.34363
-0.37447
-0.40668
-0.40461
-0.40895
-0.43837
-0.46043
-0.44446
-0.42639
-0.42748
-0.44126
-0.42611
-0.39306
-0.39636
-0.40519
-0.39280
-0.38881
-0.37897
-0.38553
-0.39312
-0.35380
-0.35121
-0.36763
-0.37049
-0.32716
-0.30590
-0.32876
-0.33188
-0.30162
-0.29064
-0.27825
-0.28480
-0.25587
-0.22637
-0.22499
-0.23682
-0.21876
-0.18282
-0.18035
-0.18359
-0.18605
-0.17689
-0.19035
-0.22287
-0.24330
-0.24174
-0.25827
-0.28375
-0.29642
-0.28985
-0.28876
-0.32214
-0.34366
-0.32770
-0.30956
-0.32557
-0.33647
-0.32559
-0.30683
-0.32745
-0.35360
-0.33405
-0.30979
-0.32693
-0.34032
-0.33286
-0.31974
-0.30240
-0.33023
-0.32764
-0.30207
-0.28618
-0.30663
-0.31243
-0.29733
-0.27448
-0.28720
-0.31317
-0.27380
-0.26704
-0.28635
-0.30199
-0.29064
-0.27648
-0.28259
-0.30340
-0.31158
-0.29288
-0.29785
-0.32744
-0.33374
-0.32272
-0.31839
-0.36036
-0.36230
-0.33720
-0.31215
-0.33114
-0.35506
-0.32625
-0.31925
-0.33036
-0.35373
-0.34873
-0.32492
-0.34240
-0.35946
-0.34923
-0.32264
-0.33944
-0.36146
-0.35178
-0.33045
-0.33366
-0.33730
-0.35552
-0.31714
-0.29433
-0.32722
-0.32905
-0.30837
-0.29930
-0.31857
-0.32150
-0.31273
-0.30799
-0.32185
-0.33452
-0.32190
-0.30772
-0.32188
-0.33762
-0.31992
-0.31467
-0.32663
-0.34322
-0.33424
-0.33547
-0.33258
-0.35525
-0.34950
-0.32397
-0.31461
-0.32636
-0.33544
-0.32016
-0.32186
-0.33506
-0.34698
-0.34530
-0.33948
-0.34633
-0.35429
-0.32186
-0.31339
-0.32380
-0.31975
-0.29891
-0.29113
-0.29730
-0.30163
-0.30881
-0.29448
-0.29594
-0.31895
-0.30810
-0.29108
-0.29592
-0.31338
-0.30909
-0.30165
-0.28632
-0.30440
-0.31641
-0.29812
-0.28918
-0.30401
-0.31730
-0.30319
-0.29534
-0.30757
-0.31891
-0.30047
-0.28799
-0.30785
-0.32894
-0.34319
-0.32768
-0.33271
-0.33635
-0.35741
-0.35357
-0.35712
-0.36724
-0.37418
-0.34148
-0.32207
-0.32228
-0.30822
-0.27103
-0.24345
-0.26743
-0.25979
-0.24555
-0.23533
-0.26628
-0.26948
-0.25090
-0.23690
-0.23879
-0.25823
-0.26616
-0.23044
-0.23593
-0.25548
-0.25374
-0.23556
-0.23164
-0.26052
-0.26351
-0.24558
-0.24555
-0.26435
-0.27666
-0.25900
-0.26642
-0.27313
-0.30016
-0.27755
-0.27222
-0.27785
-0.28537
-0.25289
-0.21128
-0.18123
-0.11010
0.03843
0.25488
0.50053
0.75119
0.99386
1.25128
1.46345
1.49092
1.28055
0.91894
0.48657
0.15637
-0.09311
-0.22610
-0.23058
-0.20117
-0.19519
-0.19424
-0.19429
-0.22913
-0.27295
-0.27411
-0.26560
-0.27683
-0.30390
-0.30868
-0.29533
-0.30235
-0.32495
-0.31659
-0.29995
-0.30606
-0.32156
-0.32797
-0.30788
-0.31153
-0.32445
-0.33452
-0.31334
-0.29549
-0.31614
-0.33067
-0.31255
-0.28880
-0.31296
-0.32974
-0.32706
-0.31382
-0.32112
-0.34178
-0.33808
-0.31502
-0.32200
-0.33470
-0.31351
-0.28802
-0.27584
-0.29677
-0.30394
-0.27163
-0.26230
-0.28780
-0.28862
-0.26989
-0.27052
-0.28849
-0.29595
-0.26386
-0.26049
-0.25440
-0.26934
-0.24523
-0.22546
-0.22584
-0.22415
-0.22793
-0.20865
-0.22024
-0.24025
-0.25154
-0.24719
-0.23110
-0.24529
-0.25933
-0.24511
-0.23647
-0.26613
-0.29010
-0.28270
-0.28751
-0.29772
-0.30911
-0.30089
-0.28239
-0.28365
-0.30669
-0.28559
-0.25300
-0.24523
-0.24719
-0.24434
-0.23279
-0.23000
-0.24233
-0.24669
-0.23876
-0.23437
-0.25175
-0.24607
-0.25487
-0.25536
-0.25131
-0.26245
-0.23440
-0.24606
-0.26793
-0.26816
-0.25785
-0.23963
-0.23784
-0.24576
-0.22992
-0.22546
-0.21253
-0.21339
-0.20148
-0.18940
-0.19377
-0.21346
-0.21761
-0.19351
-0.18953
-0.20315
-0.18327
-0.12438
-0.08691
-0.04151
0.07714
0.26430
0.43075
0.58495
0.79131
0.99009
1.19039
1.29557
1.26119
1.10276
0.82037
0.49427
0.22774
0.04974
-0.05352
-0.12824
-0.17198
-0.20191
-0.24035
-0.26901
-0.33034
-0.35419
-0.34413
-0.35642
-0.35691
-0.36768
-0.36337
-0.36678
-0.36885
-0.36901
-0.34703
-0.33137
-0.34013
-0.33940
-0.31062
-0.28580
-0.30883
-0.32660
-0.32993
-0.30296
-0.30486
-0.32500
-0.31748
-0.29804
-0.29578
-0.31253
-0.31706
-0.28765
-0.27593
-0.28452
-0.27993
-0.25442
-0.22565
-0.22582
-0.21845
-0.19619
-0.18075
-0.18575
-0.20600
-0.18217
-0.16223
-0.16105
-0.16785
-0.15947
-0.12320
-0.11899
-0.13945
-0.14869
-0.14184
-0.15406
-0.16894
-0.20005
-0.21432
-0.21959
-0.24227
-0.25726
-0.24637
-0.25409
-0.27384
-0.30690
-0.29394
-0.29252
-0.32594
-0.34486
-0.33753
-0.31778
-0.35138
-0.35513
-0.35298
-0.33241
-0.35204
-0.37605
-0.36858
-0.36382
-0.35924
-0.39222
-0.38713
-0.35652
-0.35794
-0.37098
-0.36632
-0.34425
-0.33333
-0.35767
-0.34746
-0.31013
-0.29463
-0.28668
-0.30159
-0.29161
-0.25930
-0.26953
-0.27620
-0.25632
-0.24171
-0.24975
-0.26094
-0.23074
-0.21639
-0.22398
-0.25637
-0.26923
-0.26028
-0.25979
-0.27919
-0.30283
-0.29153
-0.29215
-0.31566
-0.32767
-0.30339
-0.29667
-0.31009
-0.33077
-0.33117
-0.31673
-0.31842
-0.33953
-0.33924
-0.32820
-0.32639
-0.35343
-0.34079
-0.33397
-0.33351
-0.33803
-0.34418
-0.31137
-0.31019
-0.31464
-0.31768
-0.30946
-0.28852
-0.29603
-0.29715
-0.28517
-0.27083
-0.29265
-0.32820
-0.31740
-0.28390
-0.29119
-0.31561
-0.28619
-0.25501
-0.24602
-0.24370
-0.25838
-0.23454
-0.24820
-0.26768
-0.28255
-0.25101
-0.25102
-0.28347
-0.28912
-0.27873
-0.27179
-0.29000
-0.29570
-0.28138
-0.25852
-0.27399
-0.28964
-0.28136
-0.24202
-0.22452
-0.21817
-0.17176
-0.10112
-0.02933
0.09092
0.27906
0.50560
0.72335
0.91210
1.12415
1.32929
1.39356
1.23249
0.91971
0.57061
0.24359
-0.00125
-0.15132
-0.18412
-0.15888
-0.17576
-0.23404
-0.24707
-0.25709
-0.30012
-0.33988
-0.35823
-0.34977
-0.35988
-0.39121
-0.37991
-0.34763
-0.34814
-0.35917
-0.34471
-0.33542
-0.33305
-0.33973
-0.34498
-0.32352
-0.31065
-0.31763
-0.30725
-0.29232
-0.27416
-0.28331
-0.29362
-0.28051
-0.24993
-0.25201
-0.26892
-0.24252
-0.23176
-0.24040
-0.23757
-0.22149
-0.20297
-0.20772
-0.21344
-0.22029
-0.20302
-0.20720
-0.20568
-0.21051
-0.20096
-0.18619
-0.19890
-0.20205
-0.17016
-0.16841
-0.17434
-0.18450
-0.18182
-0.18335
-0.19187
-0.21271
-0.21833
-0.20815
-0.20443
-0.20740
-0.20853
-0.17052
-0.17237
-0.21075
-0.22001
-0.21014
-0.22267
-0.24704
-0.24654
-0.23422
-0.24014
-0.25509
-0.26289
-0.25023
-0.23520
-0.25462
-0.27155
-0.25383
-0.25295
-0.26310
-0.27848
-0.26904
-0.25958
-0.26404
-0.28037
-0.28584
-0.25900
-0.25931
-0.27128
-0.27346
-0.25587
-0.25607
-0.26338
-0.26360
-0.25247
-0.24196
-0.24993
-0.25730
-0.22723
-0.19159
-0.18304
-0.18553
-0.17058
-0.16712
-0.15502
-0.16900
-0.14745
-0.09482
-0.06673
-0.02514
0.05417
0.22380
0.37804
0.51547
0.70751
0.93073
1.09934
1.20779
1.20444
1.04196
0.71858
0.31951
0.05919
-0.07507
-0.17914
-0.23372
-0.25502
-0.25558
-0.25604
-0.30090
-0.33447
-0.33440
-0.30720
-0.32235
-0.34941
-0.34170
-0.32769
-0.32894
-0.34942
-0.34082
-0.31802
-0.30993
-0.32049
-0.33029
-0.30260
-0.28844
-0.31155
-0.32928
-0.31219
-0.28387
-0.28021
-0.30281
-0.27890
-0.24658
-0.25092
-0.26093
-0.24530
-0.20986
-0.22291
-0.22512
-0.21443
-0.19720
-0.18411
-0.20275
-0.20717
-0.18622
-0.18758
-0.19149
-0.18323
-0.15968
-0.15139
-0.16653
-0.17299
-0.14662
-0.14427
-0.15548
-0.17742
-0.17095
-0.16726
-0.19082
-0.22249
-0.23406
-0.23571
-0.23362
-0.26973
-0.26882
-0.24179
-0.25179
-0.27466
-0.27575
-0.25735
-0.26027
-0.25594
-0.25047
-0.22814
-0.22783
-0.25969
-0.26578
-0.25692
-0.23974
-0.24704
-0.26563
-0.26708
-0.24055
-0.24983
-0.27188
-0.26625
-0.25933
-0.28300
-0.31227
-0.29510
-0.29903
-0.30105
-0.30369
-0.31314
-0.30032
-0.29228
-0.30614
-0.30177
-0.27665
-0.26891
-0.27287
-0.28538
-0.27112
-0.25868
-0.25727
-0.26719
-0.24274
-0.22188
-0.21429
-0.23527
-0.22630
-0.18198
-0.14690
-0.13053
-0.09905
-0.02163
0.08974
0.25634
0.45245
0.68384
0.93250
1.13874
1.33019
1.41482
1.30815
1.00583
0.56434
0.21196
-0.02549
-0.20490
-0.25661
-0.23948
-0.22415
-0.25594
-0.30962
-0.31900
-0.32220
-0.35014
-0.37602
-0.38742
-0.36384
-0.35682
-0.37091
-0.36676
-0.34128
-0.32142
-0.34694
-0.35638
-0.32912
-0.32320
-0.34287
-0.34500
-0.32727
-0.29801
-0.31403
-0.31383
-0.27878
-0.24839
-0.25673
-0.25878
-0.24027
-0.19917
-0.22237
-0.23424
-0.22414
-0.20876
-0.20897
-0.23909
-0.24560
-0.22219
-0.22963
-0.25420
-0.26582
-0.23494
-0.23396
-0.25063
-0.25471
-0.22378
-0.21557
-0.23712
-0.25341
-0.25136
-0.24117
-0.25435
-0.29347
-0.30062
-0.28147
-0.28863
-0.30122
-0.30576
-0.30278
-0.29323
-0.30243
-0.29911
-0.26222
-0.24807
-0.23214
-0.21712
-0.18713
-0.18294
-0.21221
-0.23083
-0.20497
-0.19021
-0.20758
-0.22534
-0.22395
-0.20874
-0.23418
-0.26493
-0.24790
-0.25098
-0.25705
-0.26777
-0.26116
-0.24684
-0.24371
-0.25693
-0.23953
-0.18283
-0.14041
-0.11020
-0.01242
0.17390
0.39450
0.56939
0.78510
1.02621
1.22084
1.34250
1.33128
1.20117
0.93961
0.55558
0.21281
0.05700
-0.00565
-0.08985
-0.15008
-0.16280
-0.17849
-0.22983
-0.26065
-0.26337
-0.24466
-0.26316
-0.28206
-0.30400
-0.29513
-0.30829
-0.32957
-0.33769
-0.34492
-0.35333
-0.37466
-0.39885
-0.40968
-0.38988
-0.40950
-0.42533
-0.41575
-0.39386
-0.38989
-0.41953
-0.41511
-0.39685
-0.39596
-0.39275
-0.39165
-0.34785
-0.34386
-0.35405
-0.34607
-0.32039
-0.30419
-0.30618
-0.29794
-0.26711
-0.24785
-0.23188
-0.23422
-0.21001
-0.17634
-0.19312
-0.19123
-0.16920
-0.13758
-0.13408
-0.15518
-0.17033
-0.17175
-0.16529
-0.19569
-0.22015
-0.22020
-0.23387
-0.26991
-0.28913
-0.28012
-0.29214
-0.30998
-0.32611
-0.32169
-0.32692
-0.33784
-0.35928
-0.35164
-0.32291
-0.33876
-0.34776
-0.32745
-0.30541
-0.31730
-0.32167
-0.32091
-0.29885
-0.27447
-0.29640
-0.25863
-0.22238
-0.22505
-0.24801
-0.25694
-0.22797
-0.23116
-0.25425
-0.26210
-0.24088
-0.19898
-0.20459
-0.22312
-0.22757
-0.20135
-0.22867
-0.24619
-0.24968
-0.24016
-0.24681
-0.26832
-0.26877
-0.25655
-0.27678
-0.30025
-0.30556
-0.27766
-0.28744
-0.31189
-0.31213
-0.29684
-0.29661
-0.30855
-0.32305
-0.30699
-0.29790
-0.31770
-0.31009
-0.30970
-0.29366
-0.30046
-0.29998
-0.27056
-0.22525
-0.19940
-0.18084
-0.05197
0.15291
0.33573
0.54166
0.80266
1.07388
1.27868
1.39660
1.37949
1.19738
0.82948
0.43878
0.16449
0.01052
-0.06524
-0.10719
-0.13115
-0.16554
-0.20446
-0.24666
-0.28868
-0.30662
-0.29960
-0.30673
-0.32283
-0.34154
-0.32635
-0.33081
-0.34431
-0.36041
-0.33798
-0.34134
-0.35299
-0.36397
-0.35415
-0.33903
-0.35670
-0.37672
-0.36348
-0.33767
-0.34215
-0.35029
-0.32723
-0.30027
-0.29206
-0.30333
-0.29092
-0.26478
-0.28172
-0.29123
-0.27122
-0.23629
-0.21485
-0.23147
-0.22118
-0.18833
-0.18478
-0.18416
-0.18651
-0.16326
-0.16069
-0.18476
-0.19753
-0.18002
-0.17382
-0.21408
-0.23048
-0.23656
-0.22503
-0.24738
-0.28056
-0.28698
-0.29034
-0.31144
-0.33300
-0.33263
-0.31656
-0.32551
-0.33962
-0.33549
-0.31221
-0.28985
-0.31207
-0.30950
-0.27444
-0.25484
-0.26575
-0.26147
-0.22675
-0.21779
-0.23113
-0.23283
-0.22199
-0.21555
-0.21481
-0.22562
-0.20059
-0.17121
-0.18563
-0.20835
-0.21415
-0.20194
-0.21484
-0.23570
-0.23782
-0.22842
-0.22196
-0.24874
-0.23706
-0.20273
-0.17591
-0.15989
-0.11903
-0.01930
0.13943
0.32373
0.48198
0.68490
0.92273
1.11366
1.23016
1.25242
1.12588
0.84870
0.44505
0.13757
0.00900
-0.06935
-0.15247
-0.18383
-0.16450
-0.20635
-0.25172
-0.28442
-0.30422
-0.31419
-0.34742
-0.35951
-0.35528
-0.32747
-0.34058
-0.34898
-0.34343
-0.34591
-0.35903
-0.39171
-0.39305
-0.37527
-0.38741
-0.39608
-0.40991
-0.37166
-0.38038
-0.40543
-0.40190
-0.37169
-0.35910
-0.37888
-0.37453
-0.34294
-0.32476
-0.33135
-0.33118
-0.28070
-0.25467
-0.25281
-0.23604
-0.21783
-0.17659
-0.17939
-0.18879
-0.18128
-0.15415
-0.14115
-0.14817
-0.16956
-0.16000
-0.16278
-0.18334
-0.20056
-0.20448
-0.20358
-0.22402
-0.24024
-0.23095
-0.25874
-0.27810
-0.30643
-0.29214
-0.29680
-0.32705
-0.33551
-0.32352
-0.31881
-0.34569
-0.35899
-0.34161
-0.33507
-0.34308
-0.36521
-0.35407
-0.31670
-0.31766
-0.32688
-0.31744
-0.28440
-0.27208
-0.27992
-0.26113
-0.24144
-0.23965
-0.24852
-0.25562
-0.22937
-0.22611
-0.24800
-0.26671
-0.25998
-0.25518
-0.27348
-0.29504
-0.29309
-0.26014
-0.24887
-0.25257
-0.23619
-0.20299
-0.23114
-0.25383
-0.24514
-0.22953
-0.23523
-0.26066
-0.29436
-0.27690
-0.26633
-0.30423
-0.31594
-0.29752
-0.27903
-0.30346
-0.34262
-0.33019
-0.30696
-0.31630
-0.33833
-0.32168
-0.28189
-0.29285
-0.29285
-0.27455
-0.23261
-0.23383
-0.23786
-0.23225
-0.20300
-0.18682
-0.20550
-0.20543
-0.15864
-0.13255
-0.11761
-0.03458
0.16124
0.37614
0.58197
0.80156
1.05370
1.28650
1.42623
1.38857
1.15241
0.78259
0.37019
0.03867
-0.14958
-0.22976
-0.23650
-0.22699
-0.24536
-0.25760
-0.28066
-0.32214
-0.34831
-0.35256
-0.34425
-0.36614
-0.39285
-0.38685
-0.37709
-0.41018
-0.42044
-0.41430
-0.40574
-0.40298
-0.40921
-0.38363
-0.34864
-0.34133
-0.35553
-0.36775
-0.33342
-0.31333
-0.31810
-0.29531
-0.28031
-0.27856
-0.30051
-0.29883
-0.26855
-0.26562
-0.28186
-0.28329
-0.28417
-0.26703
-0.28790
-0.29661
-0.28584
-0.26382
-0.26813
-0.29004
-0.27505
-0.24664
-0.24928
-0.26115
-0.23771
-0.21456
-0.22292
-0.22694
-0.22928
-0.21732
-0.22215
-0.23817
-0.26794
-0.26605
-0.26288
-0.29100
-0.30759
-0.30986
-0.30530
-0.33321
-0.33913
-0.31880
-0.30170
-0.31386
-0.32774
-0.29923
-0.26255
-0.26550
-0.28317
-0.27846
-0.26528
-0.24764
-0.24148
-0.21900
-0.17301
-0.18768
-0.21809
-0.22992
-0.22091
-0.20941
-0.21348
-0.22126
-0.19674
-0.18256
-0.20236
-0.22288
-0.20171
-0.19098
-0.21219
-0.22388
-0.21219
-0.19693
-0.21795
-0.23507
-0.23277
-0.21619
-0.22459
-0.25373
-0.25456
-0.24016
-0.24926
-0.27329
-0.28394
-0.27374
-0.28303
-0.29350
-0.29725
-0.28261
-0.26763
-0.27645
-0.28026
-0.27137
-0.24104
-0.25144
-0.27865
-0.27090
-0.25560
-0.24173
-0.23891
-0.23220
-0.19607
-0.19045
-0.21079
-0.20424
-0.19764
-0.21242
-0.21677
-0.23212
-0.21541
-0.20555
-0.22495
-0.24022
-0.22629
-0.20313
-0.23233
-0.24943
-0.23271
-0.22447
-0.23855
-0.24930
-0.24559
-0.23149
-0.23048
-0.25669
-0.25692
-0.23778
-0.24396
-0.26084
-0.26523
-0.24285
-0.26185
-0.29766
-0.30670
-0.27660
-0.27137
-0.28797
-0.28794
-0.26379
-0.25231
-0.25698
-0.24684
-0.23840
-0.22179
-0.23748
-0.24487
-0.23216
-0.20677
-0.19969
-0.19645
-0.18770
-0.16091
-0.16746
-0.18577
-0.18943
-0.16091
-0.14271
-0.13686
-0.10942
-0.05070
0.00791
0.11679
0.29306
0.52060
0.74007
0.92846
1.11606
1.30610
1.43258
1.37591
1.11221
0.73896
0.38894
0.09241
-0.13064
-0.23783
-0.23848
-0.22638
-0.23392
-0.27854
-0.30069
-0.30942
-0.33423
-0.34860
-0.32981
-0.31561
-0.32646
-0.32906
-0.30708
-0.29131
-0.28860
-0.30686
-0.29253
-0.26564
-0.26867
-0.28444
-0.27924
-0.25252
-0.23280
-0.25391
-0.24769
-0.22214
-0.22801
-0.24831
-0.24970
-0.22515
-0.23138
-0.24664
-0.24800
-0.23521
-0.23308
-0.24172
-0.24940
-0.22630
-0.21882
-0.23270
-0.24112
-0.23007
-0.22101
-0.23293
-0.25945
-0.24563
-0.23379
-0.25252
-0.26788
-0.25954
-0.24172
-0.23376
-0.24504
-0.24079
-0.21504
-0.21108
-0.22334
-0.21804
-0.19020
-0.18241
-0.21037
-0.21418
-0.18659
-0.18433
-0.22012
-0.23992
-0.22916
-0.19580
-0.22089
-0.22594
-0.19714
-0.16854
-0.19011
-0.21057
-0.21538
-0.19671
-0.21017
-0.22280
-0.22170
-0.20323
-0.20730
-0.23471
-0.24385
-0.21370
-0.19950
-0.22531
-0.23156
-0.21335
-0.20945
-0.23375
-0.24714
-0.22288
-0.22517
-0.24280
-0.25008
-0.24510
-0.23742
-0.25159
-0.25518
-0.26318
-0.24591
-0.23628
-0.26704
-0.27173
-0.23952
-0.24204
-0.26621
-0.25513
-0.20597
-0.19651
-0.19992
-0.20879
-0.19575
-0.20149
-0.22420
-0.24268
-0.24735
-0.24593
-0.25426
-0.26125
-0.23394
-0.19623
-0.19818
-0.21314
-0.20393
-0.19168
-0.20164
-0.21195
-0.21603
-0.19886
-0.20248
-0.23602
-0.23154
-0.21415
-0.21023
-0.22226
-0.23887
-0.22126
-0.21141
-0.22487
-0.23747
-0.23927
-0.21690
-0.23082
-0.24481
-0.23819
-0.23375
-0.25585
-0.28930
-0.27627
-0.25368
-0.24673
-0.25391
-0.24945
-0.24099
-0.23626
-0.24067
-0.22726
-0.20690
-0.19935
-0.21440
-0.22880
-0.19671
-0.19879
-0.23039
-0.25117
-0.24540
-0.22498
-0.22605
-0.21175
-0.19591
-0.18015
-0.18292
-0.19252
-0.18326
-0.15845
-0.17462
-0.19380
-0.18944
-0.17590
-0.16028
-0.19775
-0.18295
-0.17246
-0.17673
-0.18019
-0.17677
-0.15315
-0.11963
-0.11120
-0.10433
-0.03690
0.06839
0.21458
0.37308
0.56979
0.79203
0.99655
1.15856
1.30130
1.32296
1.14439
0.83387
0.47607
0.24016
0.08425
-0.03738
-0.10559
-0.08750
-0.08549
-0.13230
-0.17425
-0.18448
-0.19916
-0.23225
-0.25185
-0.23885
-0.23001
-0.23487
-0.24577
-0.23581
-0.19272
-0.19096
-0.20670
-0.20497
-0.20275
-0.20809
-0.22208
-0.23218
-0.20963
-0.21184
-0.23498
-0.23522
-0.23230
-0.22276
-0.25213
-0.25631
-0.23301
-0.21902
-0.22517
-0.23324
-0.22725
-0.20883
-0.21533
-0.23339
-0.21327
-0.19207
-0.19310
-0.19068
-0.17224
-0.15580
-0.14254
-0.16305
-0.17056
-0.14819
-0.14623
-0.15900
-0.15027
-0.11201
-0.10715
-0.11868
-0.11516
-0.09209
-0.08329
-0.10580
-0.12349
-0.14180
-0.12419
-0.17752
-0.19318
-0.18158
-0.16585
-0.17531
-0.20200
-0.18287
-0.17156
-0.19509
-0.21443
-0.22797
-0.21430
-0.22045
-0.24417
-0.26286
-0.24258
-0.23481
-0.25067
-0.25231
-0.24665
-0.24577
-0.26841
-0.27282
-0.23789
-0.21389
-0.22249
-0.24435
-0.24732
-0.23492
-0.25258
-0.27628
-0.25886
-0.24144
-0.24992
-0.24144
-0.25105
-0.23279
-0.22429
-0.23779
-0.23503
-0.21189
-0.20253
-0.23251
-0.24278
-0.23082
-0.22089
-0.22854
-0.24045
-0.22415
-0.22427
-0.24703
-0.24722
-0.22997
-0.19950
-0.18770
-0.22868
-0.22281
-0.21462
-0.22646
-0.24052
-0.23659
-0.20936
-0.21132
-0.23238
-0.22259
-0.20875
-0.19870
-0.19717
-0.19374
-0.18552
-0.18962
-0.20833
-0.22794
-0.20613
-0.19756
-0.21147
-0.22383
-0.21572
-0.18879
-0.18950
-0.19545
-0.16112
-0.10108
-0.07315
0.01971
0.18599
0.40406
0.61703
0.81377
1.01550
1.23470
1.37141
1.31442
1.07803
0.76462
0.38499
0.06864
-0.12606
-0.18524
-0.16321
-0.16898
-0.18947
-0.21440
-0.21059
-0.26357
-0.28940
-0.28309
-0.26862
-0.28397
-0.31049
-0.30527
-0.27835
-0.29544
-0.32581
-0.33250
-0.31122
-0.31756
-0.32863
-0.33710
-0.32498
-0.31923
-0.32370
-0.32360
-0.32245
-0.29353
-0.29372
-0.31585
-0.28474
-0.25821
-0.26450
-0.29233
-0.28889
-0.25863
-0.24914
-0.27025
-0.26501
-0.25846
-0.24899
-0.25551
-0.24215
-0.21313
-0.19612
-0.20076
-0.19517
-0.15128
-0.13821
-0.14620
-0.13613
-0.10835
-0.09630
-0.09667
-0.11863
-0.10632
-0.10801
-0.12226
-0.15962
-0.17901
-0.16959
-0.17400
-0.20185
-0.22461
-0.21326
-0.22366
-0.25769
-0.27972
-0.26014
-0.26914
-0.28093
-0.29044
-0.27361
-0.25475
-0.28531
-0.29862
-0.29852
-0.28499
-0.31117
-0.32190
-0.31696
-0.30565
-0.33260
-0.34392
-0.34381
-0.32226
-0.33044
-0.32672
-0.30960
-0.27460
-0.27967
-0.28215
-0.26866
-0.25405
-0.25604
-0.27278
-0.28482
-0.27350
-0.27225
-0.28580
-0.29722
-0.28675
-0.26745
-0.28163
-0.29298
-0.28680
-0.27925
-0.28318
-0.30059
-0.29579
-0.29066
-0.30476
-0.30136
-0.29533
-0.28488
-0.28155
-0.30533
-0.31194
-0.30245
-0.28962
-0.31407
-0.32785
-0.32123
-0.31451
-0.31653
-0.32686
-0.31413
-0.28478
-0.27656
-0.27659
-0.25028
-0.23024
-0.23900
-0.25492
-0.25030
-0.23530
-0.23144
-0.25692
-0.25910
-0.24570
-0.23495
-0.23336
-0.21260
-0.14963
-0.09507
-0.08146
0.04380
0.25385
0.46861
0.68457
0.91512
1.15076
1.36817
1.45604
1.34508
1.08306
0.68380
0.28377
-0.02362
-0.19382
-0.23906
-0.21530
-0.22633
-0.24834
-0.25684
-0.28689
-0.30921
-0.33713
-0.32078
-0.31882
-0.34789
-0.32906
-0.31897
-0.30304
-0.31096
-0.33728
-0.32032
-0.31640
-0.33355
-0.34660
-0.33511
-0.32890
-0.34184
-0.35350
-0.34521
-0.31536
-0.32243
-0.34295
-0.33025
-0.30211
-0.29798
-0.32427
-0.30707
-0.27847
-0.26991
-0.28546
-0.30148
-0.28448
-0.27364
-0.27062
-0.27886
-0.24726
-0.22115
-0.22619
-0.23557
-0.22545
-0.18538
-0.19907
-0.20997
-0.18961
-0.15015
-0.13899
-0.16233
-0.15830
-0.12967
-0.14667
-0.19096
-0.21076
-0.21264
-0.21724
-0.25330
-0.26938
-0.26561
-0.26400
-0.27822
-0.31384
-0.31139
-0.29964
-0.32318
-0.32428
-0.31310
-0.29498
-0.31087
-0.32937
-0.33493
-0.30047
-0.31844
-0.32647
-0.32802
-0.30712
-0.30780
-0.32894
-0.31838
-0.29756
-0.29017
-0.30720
-0.31655
-0.28300
-0.27156
-0.28647
-0.29296
-0.26709
-0.24575
-0.23652
-0.23689
-0.21814
-0.20021
-0.21833
-0.25032
-0.24626
-0.23522
-0.23425
-0.26589
-0.27974
-0.25014
-0.25251
-0.27576
-0.28392
-0.25778
-0.26439
-0.29257
-0.31900
-0.29683
-0.28963
-0.31412
-0.31854
-0.31298
-0.30698
-0.33520
-0.33979
-0.32657
-0.31691
-0.32834
-0.34692
-0.32638
-0.31183
-0.31701
-0.33979
-0.32578
-0.31303
-0.31334
-0.31861
-0.31115
-0.29478
-0.28890
-0.29809
-0.29361
-0.28742
-0.27534
-0.28766
-0.30387
-0.27782
-0.26912
-0.28533
-0.27828
-0.24111
-0.18692
-0.14765
-0.11242
-0.06143
0.04185
0.21430
0.39524
0.63859
0.89450
1.10828
1.30232
1.43216
1.39279
1.16709
0.76137
0.34244
0.08270
-0.09172
-0.19183
-0.20635
-0.20718
-0.20012
-0.24846
-0.28704
-0.31139
-0.29843
-0.31354
-0.33038
-0.32837
-0.30894
-0.30668
-0.34439
-0.33753
-0.31710
-0.31156
-0.34827
-0.34152
-0.30724
-0.30095
-0.31588
-0.32468
-0.30151
-0.29301
-0.31502
-0.33932
-0.33055
-0.30514
-0.31980
-0.32537
-0.29887
-0.25427
-0.26672
-0.29693
-0.28090
-0.24853
-0.26473
-0.26908
-0.25508
-0.23722
-0.23708
-0.23352
-0.23242
-0.20605
-0.18355
-0.20984
-0.19852
-0.19027
-0.18824
-0.21370
-0.23944
-0.21356
-0.23061
-0.25183
-0.25876
-0.26098
-0.25053
-0.28608
-0.30836
-0.31715
-0.31716
-0.32186
-0.34503
-0.34728
-0.33784
-0.34062
-0.35582
-0.37244
-0.34510
-0.33716
-0.34778
-0.34993
-0.31354
-0.30428
-0.30898
-0.32421
-0.30980
-0.26962
-0.27543
-0.27051
-0.25460
-0.23791
-0.23957
-0.26014
-0.25390
-0.23449
-0.23876
-0.25223
-0.25641
-0.23366
-0.23612
-0.24423
-0.23973
-0.21870
-0.22011
-0.24687
-0.25380
-0.24385
-0.24440
-0.27141
-0.28757
-0.27369
-0.27130
-0.30317
-0.33739
-0.31835
-0.29934
-0.32246
-0.33692
-0.32775
-0.32134
-0.33238
-0.35808
-0.35630
-0.32761
-0.31769
-0.31331
-0.28776
-0.25147
-0.25115
-0.26484
-0.26769
-0.25144
-0.24934
-0.26843
-0.28753
-0.27375
-0.26148
-0.26576
-0.27145
-0.27020
-0.24673
-0.25357
-0.27324
-0.27180
-0.27289
-0.27417
-0.29607
-0.30272
-0.27906
-0.29985
-0.30949
-0.33247
-0.30561
-0.31542
-0.33196
-0.34781
-0.33795
-0.33185
-0.35704
-0.36493
-0.34260
-0.32608
-0.34558
-0.35257
-0.33415
-0.30087
-0.29995
-0.30432
-0.30247
-0.27891
-0.26182
-0.26190
-0.23559
-0.21003
-0.21595
-0.23610
-0.23847
-0.21637
-0.22419
-0.23131
-0.23025
-0.21579
-0.20927
-0.23794
-0.24558
-0.23925
-0.23403
-0.25682
-0.26977
-0.24464
-0.21966
-0.24318
-0.24030
-0.22436
-0.19569
-0.15465
-0.11848
0.02445
0.24263
0.45044
0.66884
0.89665
1.13461
1.32419
1.38012
1.22952
0.93225
0.56771
0.22542
-0.00883
-0.14258
-0.18687
-0.18583
-0.16505
-0.16573
-0.16678
-0.19904
-0.24251
-0.26732
-0.25418
-0.27214
-0.30082
-0.31072
-0.29690
-0.30776
-0.34056
-0.34230
-0.34137
-0.33599
-0.37332
-0.38279
-0.38015
-0.37213
-0.38702
-0.38965
-0.37436
-0.36434
-0.37567
-0.40530
-0.39061
-0.37583
-0.36858
-0.37517
-0.36788
-0.31372
-0.31981
-0.34334
-0.31388
-0.29264
-0.26671
-0.26115
-0.24098
-0.21263
-0.19247
-0.19753
-0.20667
-0.17152
-0.15841
-0.15614
-0.13058
-0.08552
-0.06263
-0.07750
-0.11242
-0.09851
-0.09362
-0.13038
-0.16863
-0.17355
-0.17600
-0.20843
-0.24525
-0.25491
-0.23087
-0.24393
-0.28315
-0.28126
-0.28698
-0.28592
-0.30236
-0.31628
-0.29222
-0.26922
-0.29250
-0.29681
-0.26689
-0.25764
-0.28920
-0.30063
-0.28481
-0.27739
-0.29128
-0.30306
-0.29255
-0.28245
-0.29145
-0.29675
-0.31175
-0.28578
-0.28047
-0.29238
-0.28176
-0.24858
-0.25244
-0.27577
-0.28735
-0.27996
-0.27164
-0.28969
-0.29834
-0.29193
-0.27572
-0.28384
-0.30320
-0.27110
-0.26136
-0.27200
-0.27999
-0.27777
-0.24700
-0.21968
-0.22650
-0.18843
-0.12695
-0.06982
0.02105
0.20444
0.41496
0.62897
0.85373
1.05804
1.25178
1.30803
1.12222
0.75895
0.35331
0.06076
-0.15087
-0.25621
-0.23789
-0.19157
-0.21670
-0.26919
-0.27688
-0.28476
-0.31082
-0.35457
-0.34779
-0.34662
-0.36604
-0.38310
-0.39587
-0.37701
-0.37591
-0.39050
-0.38901
-0.36689
-0.35728
-0.35386
-0.36384
-0.34807
-0.32907
-0.32840
-0.33859
-0.33094
-0.30137
-0.31435
-0.32271
-0.31855
-0.30259
-0.28556
-0.29359
-0.28385
-0.25880
-0.26601
-0.27652
-0.28239
-0.26624
-0.25341
-0.28147
-0.27661
-0.24446
-0.22394
-0.21862
-0.21516
-0.19611
-0.18432
-0.20112
-0.22113
-0.21454
-0.21448
-0.23367
-0.26539
-0.25922
-0.24468
-0.25819
-0.27690
-0.29228
-0.28314
-0.28712
-0.30275
-0.32310
-0.30307
-0.29717
-0.33815
-0.32934
-0.31241
-0.31572
-0.32980
-0.34250
-0.34127
-0.32853
-0.34448
-0.34872
-0.35065
-0.33167
-0.33913
-0.36302
-0.35029
-0.33982
-0.36461
-0.38898
-0.38585
-0.37895
-0.37892
-0.38940
-0.37644
-0.34398
-0.34342
-0.33680
-0.31186
-0.28064
-0.26825
-0.27712
-0.28213
-0.25168
-0.23260
-0.24381
-0.24847
-0.24463
-0.24921
-0.25511
-0.28126
-0.26324
-0.24562
-0.26745
-0.28880
-0.27816
-0.26696
-0.28304
-0.32173
-0.31211
-0.29379
-0.30007
-0.31694
-0.31807
-0.30579
-0.30525
-0.32104
-0.33416
-0.32838
-0.31170
-0.33336
-0.33941
-0.32327
-0.31788
-0.32706
-0.35074
-0.33383
-0.33558
-0.32536
-0.30800
-0.32049
-0.30009
-0.30046
-0.32577
-0.32323
-0.29381
-0.27105
-0.28482
-0.26701
-0.22548
-0.19884
-0.22282
-0.21806
-0.19876
-0.17239
-0.18614
-0.17361
-0.11113
-0.04731
0.02510
0.16517
0.35307
0.58112
0.79437
0.98210
1.18505
1.36494
1.42283
1.28982
1.01165
0.63711
0.26118
-0.00589
-0.17528
-0.23610
-0.24415
-0.25455
-0.27523
-0.27967
-0.29717
-0.32055
-0.33751
-0.32677
-0.32506
-0.33572
-0.36630
-0.36199
-0.34201
-0.35209
-0.36561
-0.35007
-0.33238
-0.32382
-0.34315
-0.34555
-0.32422
-0.31664
-0.32491
-0.31996
-0.30728
-0.28789
-0.31188
-0.30025
-0.28480
-0.26627
-0.27874
-0.30021
-0.29088
-0.27712
-0.29879
-0.30639
-0.30076
-0.26773
-0.27174
-0.28117
-0.27129
-0.23928
-0.22474
-0.24355
-0.22457
-0.20523
-0.17567
-0.19343
-0.18986
-0.15317
-0.15256
-0.18192
-0.19677
-0.18225
-0.17904
-0.18477
-0.20387
-0.18738
-0.19958
-0.21329
-0.22811
-0.24502
-0.22526
-0.25777
-0.27728
-0.27471
-0.26941
-0.26558
-0.29890
-0.29394
-0.29130
-0.27899
-0.31088
-0.31445
-0.30490
-0.31123
-0.31917
-0.33340
-0.30465
-0.30576
-0.32361
-0.33074
-0.31035
-0.30176
-0.30879
-0.30685
-0.29790
-0.28818
-0.30046
-0.31422
-0.30890
-0.28099
-0.27577
-0.27478
-0.27011
-0.24869
-0.25166
-0.25214
-0.25344
-0.23831
-0.22890
-0.24666
-0.24818
-0.23887
-0.23870
-0.25316
-0.27359
-0.26691
-0.25094
-0.26184
-0.26714
-0.25916
-0.23531
-0.24678
-0.28972
-0.26241
-0.24859
-0.25305
-0.26701
-0.27627
-0.25586
-0.25086
-0.26984
-0.27138
-0.25641
-0.23713
-0.25510
-0.24240
-0.20661
-0.15889
-0.12513
-0.05795
0.11412
0.31751
0.52242
0.73853
0.95837
1.17463
1.32943
1.29887
1.16395
0.91023
0.53878
0.22816
0.03238
-0.07197
-0.13272
-0.17026
-0.19695
-0.21317
-0.22785
-0.26506
-0.29405
-0.30033
-0.30506
-0.33377
-0.35587
-0.34278
-0.33796
-0.35130
-0.37107
-0.37439
-0.35645
-0.37904
-0.38934
-0.38019
-0.37463
-0.35791
-0.38590
-0.37317
-0.35938
-0.34405
-0.35170
-0.34004
-0.31524
-0.30424
-0.31445
-0.33096
-0.30998
-0.29239
-0.30856
-0.32297
-0.29470
-0.26020
-0.27598
-0.27433
-0.25307
-0.22766
-0.22587
-0.23171
-0.22515
-0.19603
-0.18795
-0.19559
-0.19706
-0.17453
-0.17053
-0.19865
-0.21125
-0.19903
-0.20813
-0.25661
-0.26243
-0.27350
-0.26114
-0.27809
-0.29731
-0.28004
-0.27522
-0.28672
-0.30325
-0.29740
-0.27434
-0.28959
-0.30423
-0.29961
-0.29048
-0.29269
-0.30904
-0.30514
-0.28168
-0.28770
-0.31714
-0.33838
-0.31422
-0.31471
-0.35186
-0.34834
-0.32477
-0.30933
-0.33509
-0.35699
-0.35042
-0.34264
-0.35349
-0.35904
-0.35285
-0.34232
-0.35262
-0.36584
-0.34386
-0.33054
-0.34031
-0.36797
-0.36238
-0.33057
-0.33971
-0.32675
-0.31764
-0.30827
-0.29431
-0.30088
-0.31678
-0.30663
-0.28676
-0.29854
-0.30243
-0.29550
-0.28194
-0.30307
-0.32554
-0.32035
-0.29706
-0.29426
-0.31900
-0.30699
-0.28070
-0.27695
-0.29294
-0.30494
-0.27428
-0.26081
-0.27176
-0.29237
-0.27554
-0.26427
-0.29381
-0.31941
-0.31542
-0.30789
-0.30705
-0.32792
-0.33086
-0.31151
-0.32988
-0.33461
-0.32217
-0.30872
-0.30260
-0.31871
-0.31384
-0.30467
-0.29175
-0.30937
-0.30257
-0.28762
-0.28898
-0.29242
-0.30319
-0.27769
-0.27266
-0.29470
-0.29607
-0.28390
-0.26719
-0.28382
-0.27975
-0.26203
-0.24349
-0.26023
-0.27254
-0.25606
-0.23341
-0.22196
-0.20613
-0.16675
-0.10613
-0.05064
0.04294
0.20624
0.39307
0.57106
0.74937
0.95233
1.14280
1.28772
1.29450
1.14620
0.91575
0.58331
0.24393
0.02724
-0.10990
-0.16723
-0.19478
-0.21406
-0.22658
-0.23692
-0.27751
-0.31191
-0.32540
-0.31473
-0.33446
-0.36652
-0.35418
-0.34469
-0.34539
-0.35827
-0.36414
-0.34422
-0.33802
-0.35583
-0.36164
-0.35163
-0.33464
-0.34634
-0.36435
-0.34469
-0.32404
-0.33062
-0.34835
-0.33183
-0.29810
-0.30134
-0.31638
-0.29125
-0.25944
-0.23991
-0.24434
-0.23111
-0.18048
-0.16768
-0.18429
-0.17666
-0.15172
-0.14151
-0.15755
-0.16781
-0.14683
-0.13076
-0.12573
-0.14259
-0.12205
-0.08862
-0.10144
-0.10333
-0.09745
-0.08300
-0.10127
-0.13083
-0.14593
-0.13606
-0.14759
-0.18179
-0.20608
-0.20448
-0.20273
-0.24305
-0.26633
-0.25369
-0.26318
-0.28844
-0.30677
-0.30310
-0.29613
-0.31153
-0.32202
-0.31038
-0.30153
-0.29254
-0.29937
-0.29122
-0.27759
-0.27574
-0.28715
-0.28025
-0.25261
-0.25004
-0.27090
-0.25215
-0.24048
-0.23328
-0.25852
-0.26270
-0.24334
-0.23961
-0.25476
-0.27778
-0.26365
-0.25384
-0.27894
-0.27334
-0.28015
-0.23743
-0.24504
-0.26442
-0.24732
-0.24361
-0.26052
-0.27338
-0.26701
-0.24687
-0.25506
-0.27185
-0.28057
-0.24920
-0.24490
-0.25793
-0.27260
-0.26581
-0.26479
-0.26973
-0.27889
-0.26405
-0.25196
-0.27075
-0.28174
-0.27090
-0.23987
-0.22784
-0.24348
-0.22770
-0.20828
-0.21257
-0.21800
-0.20946
-0.19099
-0.19765
-0.20224
-0.20817
-0.20026
-0.20483
-0.21979
-0.23131
-0.21647
-0.20283
-0.21881
-0.25088
-0.22455
-0.20659
-0.22409
-0.20931
-0.17816
-0.13332
-0.10817
-0.04462
0.10785
0.31521
0.50998
0.71573
0.93284
1.14420
1.32346
1.44477
1.40731
1.21247
0.88296
0.48271
0.16900
-0.03565
-0.17220
-0.24541
-0.23899
-0.23440
-0.24317
-0.28941
-0.32088
-0.31856
-0.29730
-0.31113
-0.32470
-0.31466
-0.30981
-0.31719
-0.34063
-0.32283
-0.31493
-0.32064
-0.32491
-0.32893
-0.30121
-0.30692
-0.31744
-0.33463
-0.31278
-0.30518
-0.33414
-0.33502
-0.32380
-0.30861
-0.31508
-0.31726
-0.30541
-0.28137
-0.28412
-0.29639
-0.26396
-0.24443
-0.25132
-0.26546
-0.23253
-0.21772
-0.21711
-0.22077
-0.20956
-0.19222
-0.18847
-0.18734
-0.16757
-0.14746
-0.14431
-0.14828
-0.15697
-0.13528
-0.12311
-0.14291
-0.15960
-0.15228
-0.13245
-0.14592
-0.17449
-0.16568
-0.18117
-0.20148
-0.23580
-0.24753
-0.24352
-0.25298
-0.29270
-0.30735
-0.28819
-0.28706
-0.31776
-0.33274
-0.31413
-0.30264
-0.31750
-0.33154
-0.31680
-0.29609
-0.32072
-0.32756
-0.32138
-0.30765
-0.30396
-0.30886
-0.29540
-0.27726
-0.27562
-0.28511
-0.28137
-0.26438
-0.26420
-0.27383
-0.26703
-0.25155
-0.23886
-0.25607
-0.24884
-0.22827
-0.24445
-0.24270
-0.25712
-0.23921
-0.23741
-0.24130
-0.24235
-0.21500
-0.17177
-0.14397
-0.10851
-0.03570
0.10283
0.27475
0.42167
0.62904
0.88494
1.09526
1.26256
1.38547
1.41551
1.25609
0.93067
0.52505
0.17802
-0.02122
-0.15566
-0.24093
-0.21936
-0.20685
-0.25624
-0.31164
-0.31548
-0.30907
-0.33356
-0.35707
-0.36473
-0.35221
-0.36745
-0.38496
-0.38563
-0.36795
-0.37558
-0.38935
-0.38462
-0.37894
-0.37805
-0.39799
-0.40524
-0.40330
-0.39633
-0.42119
-0.43167
-0.41621
-0.40274
-0.40762
-0.41783
-0.39020
-0.35807
-0.34995
-0.34219
-0.29508
-0.25326
-0.23940
-0.25365
-0.22515
-0.20234
-0.20807
-0.22302
-0.21230
-0.18479
-0.18934
-0.19855
-0.19569
-0.17161
-0.15613
-0.17881
-0.19243
-0.20213
-0.19123
-0.22155
-0.24432
-0.24108
-0.25523
-0.27415
-0.29012
-0.28917
-0.29881
-0.32043
-0.34474
-0.34724
-0.34053
-0.35648
-0.37260
-0.37012
-0.35392
-0.34650
-0.34810
-0.35840
-0.34358
-0.35269
-0.37549
-0.38223
-0.35683
-0.34810
-0.36499
-0.37028
-0.33496
-0.30990
-0.33419
-0.36068
-0.36160
-0.34259
-0.36608
-0.36797
-0.36411
-0.35323
-0.34539
-0.36281
-0.36533
-0.35170
-0.33983
-0.36021
-0.37766
-0.36018
-0.35360
-0.36082
-0.35498
-0.33889
-0.34809
-0.35307
-0.36985
-0.36382
-0.33648
-0.36416
-0.38322
-0.36720
-0.35986
-0.36430
-0.36440
-0.35073
-0.32937
-0.33644
-0.37018
-0.35413
-0.34784
-0.33908
-0.34082
-0.34264
-0.31186
-0.29695
-0.31024
-0.32077
-0.31331
-0.30274
-0.32821
-0.34916
-0.32594
-0.31637
-0.33088
-0.33471
-0.32990
-0.31836
-0.32841
-0.34280
-0.31723
-0.25381
-0.23636
-0.22334
-0.14535
0.03895
0.23800
0.42337
0.65472
0.88602
1.09191
1.23527
1.28647
1.19269
0.93878
0.54821
0.21546
0.01869
-0.12821
-0.23036
-0.27163
-0.26531
-0.27021
-0.32052
-0.36362
-0.38170
-0.38528
-0.39626
-0.40466
-0.38065
-0.35142
-0.35174
-0.36863
-0.36633
-0.37049
-0.37835
-0.38176
-0.38998
-0.36198
-0.35146
-0.37421
-0.39327
-0.37601
-0.36962
-0.39385
-0.39987
-0.38940
-0.37632
-0.38238
-0.38992
-0.37755
-0.34986
-0.35771
-0.36349
-0.34924
-0.33288
-0.34476
-0.35810
-0.33854
-0.31169
-0.29756
-0.30377
-0.30190
-0.27948
-0.27141
-0.28512
-0.29542
-0.27041
-0.24237
-0.26304
-0.27099
-0.26994
-0.25921
-0.25203
-0.26703
-0.25732
-0.25198
-0.27912
-0.30153
-0.32295
-0.31283
-0.31206
-0.34070
-0.35029
-0.34893
-0.35926
-0.37783
-0.38922
-0.38191
-0.37117
-0.38442
-0.41525
-0.40104
-0.39110
-0.41550
-0.43130
-0.40924
-0.39857
-0.40861
-0.42089
-0.41842
-0.39323
-0.39930
-0.41047
-0.41329
-0.40207
-0.39860
-0.42334
-0.42150
-0.41440
-0.42036
-0.44029
-0.43548
-0.41635
-0.39389
-0.39395
-0.37334
-0.34275
-0.31556
-0.33163
-0.33714
-0.32661
-0.31426
-0.32134
-0.34023
-0.33941
-0.31933
-0.32298
-0.34088
-0.34614
-0.33570
-0.35014
-0.36416
-0.37702
-0.37086
-0.37426
-0.39367
-0.40193
-0.36661
-0.36812
-0.38121
-0.39399
-0.39829
-0.37865
-0.39825
-0.40821
-0.41077
-0.39667
-0.39467
-0.40451
-0.39479
-0.38023
-0.38338
-0.39405
-0.39788
-0.37986
-0.38102
-0.38836
-0.38923
-0.38079
-0.36514
-0.35613
-0.36183
-0.32208
-0.30586
-0.31650
-0.32706
-0.32080
-0.29558
-0.31442
-0.32638
-0.32943
-0.32797
-0.31863
-0.32645
-0.33178
-0.31553
-0.32775
-0.34923
-0.34993
-0.32686
-0.33685
-0.34855
-0.35940
-0.33948
-0.34863
-0.36201
-0.37552
-0.35959
-0.35238
-0.35911
-0.36532
-0.33771
-0.32996
-0.33218
-0.34062
-0.32584
-0.31154
-0.32816
-0.32564
-0.31695
-0.31297
-0.32191
-0.33880
-0.30938
-0.28988
-0.27279
-0.27691
-0.27385
-0.26323
-0.26073
-0.26816
-0.27612
-0.25158
-0.24508
-0.25077
-0.27047
-0.24787
-0.24046
-0.23108
-0.23389
-0.18162
-0.12829
-0.05481
0.07679
0.27517
0.48031
0.68964
0.88437
1.07936
1.23534
1.22047
1.00439
0.64571
0.30392
0.03631
-0.14851
-0.23355
-0.22909
-0.22674
-0.26284
-0.31381
-0.32779
-0.31945
-0.32097
-0.31563
-0.31326
-0.30520
-0.31334
-0.33140
-0.35640
-0.32030
-0.30330
-0.33084
-0.32393
-0.30430
-0.30420
-0.32257
-0.34160
-0.31733
-0.30817
-0.34468
-0.34748
-0.32917
-0.31110
-0.31878
-0.32871
-0.31437
-0.29225
-0.30338
-0.29806
-0.27711
-0.25999
-0.27154
-0.28050
-0.26783
-0.24534
-0.25614
-0.25310
-0.24129
-0.22151
-0.20945
-0.19502
-0.18687
-0.17126
-0.15787
-0.16182
-0.14221
-0.11543
-0.12452
-0.15865
-0.19044
-0.19146
-0.19116
-0.20854
-0.23341
-0.21868
-0.22023
-0.23576
-0.25830
-0.27541
-0.25566
-0.27191
-0.29072
-0.30449
-0.28688
-0.29331
-0.31093
-0.31446
-0.30079
-0.30191
-0.32138
-0.33765
-0.32013
-0.30519
-0.31681
-0.34365
-0.33338
-0.32374
-0.33077
-0.34807
-0.33233
-0.29718
-0.30343
-0.29368
-0.26203
-0.23810
-0.24239
-0.24313
-0.22932
-0.22517
-0.20826
-0.23220
-0.23681
-0.22007
-0.22203
-0.25420
-0.26498
-0.24528
-0.22645
-0.23219
-0.23525
-0.21738
-0.20011
-0.21429
-0.23916
-0.22641
-0.22603
-0.25785
-0.27278
-0.26523
-0.25036
-0.26179
-0.29222
-0.29099
-0.27370
-0.27602
-0.32479
-0.32932
-0.29254
-0.29628
-0.31701
-0.31662
-0.30008
-0.27880
-0.27488
-0.27384
-0.24780
-0.23283
-0.24090
-0.24679
-0.22864
-0.21241
-0.19646
-0.20815
-0.20851
-0.18328
-0.16667
-0.13046
-0.08236
0.01204
0.17620
0.35543
0.58777
0.83802
1.05741
1.22964
1.36544
1.35375
1.11196
0.73511
0.35305
0.08878
-0.07582
-0.19460
-0.23685
-0.22805
-0.22284
-0.25843
-0.29890
-0.30834
-0.30983
-0.33150
-0.36945
-0.36913
-0.34516
-0.33118
-0.33306
-0.33873
-0.31536
-0.30408
-0.32637
-0.32599
-0.30910
-0.30374
-0.32735
-0.32511
-0.29842
-0.28898
-0.30920
-0.32362
-0.31092
-0.28503
-0.30012
-0.33193
-0.32278
-0.29640
-0.30055
-0.30766
-0.29618
-0.26799
-0.24371
-0.25666
-0.24812
-0.22606
-0.21351
-0.21202
-0.21358
-0.19571
-0.18546
-0.19595
-0.21342
-0.18553
-0.16549
-0.18114
-0.20147
-0.18885
-0.16998
-0.17497
-0.20064
-0.20297
-0.19894
-0.20891
-0.23949
-0.24741
-0.24653
-0.25372
-0.27712
-0.28659
-0.29622
-0.29583
-0.32245
-0.33353
-0.32482
-0.31348
-0.35069
-0.35574
-0.34876
-0.35020
-0.36826
-0.38878
-0.37505
-0.35566
-0.36819
-0.36562
-0.34418
-0.32100
-0.31303
-0.35315
-0.34195
-0.31174
-0.31552
-0.33401
-0.32017
-0.28677
-0.28518
-0.29450
-0.28883
-0.26523
-0.25166
-0.26336
-0.27370
-0.25575
-0.24539
-0.27769
-0.29430
-0.27084
-0.26321
-0.28430
-0.29512
-0.29063
-0.27867
-0.29797
-0.30743
-0.31799
-0.31016
-0.32642
-0.35459
-0.36377
-0.35383
-0.34239
-0.36686
-0.37779
-0.35035
-0.34232
-0.35774
-0.36795
-0.33436
-0.31139
-0.32970
-0.33073
-0.31609
-0.31491
-0.30297
-0.31652
-0.30653
-0.28030
-0.28404
-0.30279
-0.29131
-0.26763
-0.26026
-0.27586
-0.27985
-0.24777
-0.26182
-0.28699
-0.29397
-0.27265
-0.26416
-0.29259
-0.29709
-0.27560
-0.26479
-0.27656
-0.28850
-0.26645
-0.23394
-0.22155
-0.20468
-0.14719
-0.03690
0.10157
0.26126
0.47754
0.72472
0.92781
1.11288
1.27029
1.31004
1.13127
0.82606
0.48714
0.24032
0.05197
-0.10904
-0.16771
-0.14439
-0.15505
-0.19512
-0.22744
-0.25818
-0.25150
-0.28079
-0.30733
-0.32129
-0.31629
-0.34681
-0.35279
-0.36086
-0.35451
-0.36448
-0.39770
-0.40508
-0.38480
-0.37894
-0.39830
-0.39903
-0.37417
-0.35952
-0.35224
-0.35675
-0.34320
-0.30957
-0.31680
-0.32187
-0.30776
-0.27187
-0.27584
-0.28947
-0.26036
-0.23789
-0.23434
-0.23520
-0.22655
-0.18952
-0.17987
-0.19408
-0.19103
-0.16763
-0.14946
-0.16516
-0.16670
-0.14143
-0.13665
-0.16226
-0.17225
-0.15011
-0.15044
-0.17979
-0.21498
-0.21464
-0.20408
-0.23860
-0.27308
-0.26673
-0.27033
-0.28084
-0.30447
-0.30815
-0.30679
-0.30985
-0.32366
-0.30501
-0.27781
-0.26999
-0.28576
-0.27300
-0.25222
-0.24590
-0.26048
-0.27407
-0.25230
-0.24152
-0.24250
-0.26261
-0.23867
-0.23796
-0.25109
-0.26967
-0.24879
-0.23398
-0.24203
-0.25506
-0.24221
-0.20548
-0.19439
-0.19551
-0.13148
-0.05492
0.08448
0.26510
0.46888
0.67415
0.89948
1.09291
1.21810
1.27838
1.17305
0.92139
0.55179
0.23277
0.06877
-0.06330
-0.17124
-0.19843
-0.19678
-0.24917
-0.29820
-0.30978
-0.31354
-0.34257
-0.35882
-0.37176
-0.36302
-0.36452
-0.38793
-0.39877
-0.39002
-0.38996
-0.39664
-0.40056
-0.37095
-0.35701
-0.36588
-0.36900
-0.35878
-0.34025
-0.34809
-0.36896
-0.36259
-0.35323
-0.35399
-0.36475
-0.35789
-0.33712
-0.34386
-0.36505
-0.34936
-0.32750
-0.30953
-0.31075
-0.28733
-0.26587
-0.24936
-0.23935
-0.23266
-0.19650
-0.18331
-0.16663
-0.20001
-0.16516
-0.14014
-0.15798
-0.16218
-0.15263
-0.15260
-0.17541
-0.19987
-0.20844
-0.21137
-0.23959
-0.27841
-0.28942
-0.27053
-0.29903
-0.33341
-0.32852
-0.32118
-0.33267
-0.35646
-0.36835
-0.36234
-0.35288
-0.39086
-0.39754
-0.36296
-0.34340
-0.33744
-0.34907
-0.32820
-0.30712
-0.31250
-0.32558
-0.32272
-0.30143
-0.30360
-0.30467
-0.29664
-0.28787
-0.29759
-0.30805
-0.30824
-0.29403
-0.29767
-0.31926
-0.32393
-0.30760
-0.30133
-0.30394
-0.32136
-0.31469
-0.30927
-0.31859
-0.32511
-0.32507
-0.30161
-0.32350
-0.34473
-0.33572
-0.32931
-0.33413
-0.35468
-0.35702
-0.34338
-0.33173
-0.35515
-0.35957
-0.32884
-0.31892
-0.32887
-0.32352
-0.29282
-0.26873
-0.27241
-0.28568
-0.26882
-0.26090
-0.26039
-0.27339
-0.26158
-0.24513
-0.25933
-0.26893
-0.26430
-0.24637
-0.25549
-0.28429
-0.29208
-0.26997
-0.25809
-0.27694
-0.27720
-0.25194
-0.25059
-0.26455
-0.27120
-0.25178
-0.24055
-0.25339
-0.27437
-0.26412
-0.24450
-0.26334
-0.26008
-0.24343
-0.21971
-0.20130
-0.17255
-0.11563
-0.02272
0.13819
0.30348
0.51456
0.76646
0.99807
1.19876
1.35157
1.34643
1.15573
0.80440
0.44275
0.17218
-0.02045
-0.16245
-0.19585
-0.18334
-0.19187
-0.23636
-0.26671
-0.27251
-0.27529
-0.29506
-0.32177
-0.32687
-0.33664
-0.34847
-0.35099
-0.35795
-0.34634
-0.33875
-0.36902
-0.37045
-0.35488
-0.35277
-0.37242
-0.38760
-0.38663
-0.36703
-0.38371
-0.40500
-0.39777
-0.36899
-0.39850
-0.40777
-0.38797
-0.36733
-0.37590
-0.38265
-0.35354
-0.32417
-0.32030
-0.32862
-0.30211
-0.27596
-0.27039
-0.27152
-0.25928
-0.25236
-0.23372
-0.23698
-0.23372
-0.21653
-0.20575
-0.20642
-0.21592
-0.18376
-0.16852
-0.17483
-0.18520
-0.18354
-0.16069
-0.17549
-0.19260
-0.21446
-0.19775
-0.22091
-0.25355
-0.25680
-0.24480
-0.25993
-0.29103
-0.30399
-0.30574
-0.29522
-0.31176
-0.32799
-0.31040
-0.30249
-0.31894
-0.32562
-0.31653
-0.29522
-0.31576
-0.33375
-0.32687
-0.30703
-0.29695
-0.30749
-0.28853
-0.26931
-0.26377
-0.28196
-0.27580
-0.24197
-0.24590
-0.26053
-0.26411
-0.23838
-0.23062
-0.25257
-0.25605
-0.23297
-0.23109
-0.25294
-0.25894
-0.26365
-0.26512
-0.27550
-0.28412
-0.28721
-0.28200
-0.28243
-0.31527
-0.30518
-0.29863
-0.30650
-0.33285
-0.35354
-0.32114
-0.31793
-0.33265
-0.33042
-0.32174
-0.31304
-0.32666
-0.32921
-0.30784
-0.29439
-0.32886
-0.32709
-0.31625
-0.31558
-0.32117
-0.32706
-0.31363
-0.29830
-0.30560
-0.31532
-0.32124
-0.30998
-0.30375
-0.30762
-0.30404
-0.27004
-0.25236
-0.25044
-0.25772
-0.24710
-0.23284
-0.23367
-0.25631
-0.23535
-0.22668
-0.23512
-0.22072
-0.19619
-0.16748
-0.16343
-0.10946
0.01202
0.17210
0.33588
0.50844
0.70978
0.91594
1.09207
1.23000
1.29319
1.21130
0.95066
0.58565
0.27063
0.05316
-0.08932
-0.18009
-0.19322
-0.18308
-0.21059
-0.25068
-0.27114
-0.28867
-0.29469
-0.31548
-0.34208
-0.34125
-0.33644
-0.34557
-0.36993
-0.37206
-0.36566
-0.36443
-0.38558
-0.37989
-0.35889
-0.34891
-0.36549
-0.36225
-0.33397
-0.34726
-0.35629
-0.36546
-0.35638
-0.34993
-0.35007
-0.36955
-0.36629
-0.34751
-0.35672
-0.36123
-0.35480
-0.31873
-0.32399
-0.34653
-0.31915
-0.31083
-0.30152
-0.30217
-0.29350
-0.26288
-0.26325
-0.28094
-0.27563
-0.25200
-0.23762
-0.25186
-0.25373
-0.23619
-0.22748
-0.24218
-0.26463
-0.26434
-0.24946
-0.29238
-0.32202
-0.31058
-0.29522
-0.32478
-0.34557
-0.34573
-0.33889
-0.34571
-0.37733
-0.36341
-0.35099
-0.36169
-0.38008
-0.38685
-0.35365
-0.35124
-0.36238
-0.37704
-0.35635
-0.33061
-0.33759
-0.34651
-0.31693
-0.29173
-0.30433
-0.32761
-0.31100
-0.28584
-0.29238
-0.30735
-0.30514
-0.29843
-0.29245
-0.30954
-0.30052
-0.27822
-0.28434
-0.30489
-0.30164
-0.27033
-0.26779
-0.26493
-0.26894
-0.20993
-0.15670
-0.11655
-0.00569
0.15618
0.33298
0.49731
0.68386
0.88265
1.03872
1.11985
1.04220
0.86628
0.58991
0.28111
0.06025
-0.04938
-0.13139
-0.18347
-0.21643
-0.23101
-0.24730
-0.28940
-0.32834
-0.34221
-0.34769
-0.34294
-0.36247
-0.38100
-0.38343
-0.36836
-0.37957
-0.40751
-0.39344
-0.39600
-0.40514
-0.42857
-0.41555
-0.39624
-0.40243
-0.42492
-0.41008
-0.38683
-0.39898
-0.40949
-0.40578
-0.40110
-0.39740
-0.40413
-0.40352
-0.38162
-0.37069
-0.36776
-0.36564
-0.33639
-0.30183
-0.28514
-0.29190
-0.25259
-0.22786
-0.21304
-0.22867
-0.21814
-0.18043
-0.18765
-0.19337
-0.18724
-0.16441
-0.16721
-0.19499
-0.19442
-0.20542
-0.21405
-0.24832
-0.27232
-0.28808
-0.31252
-0.31372
-0.33831
-0.34217
-0.33274
-0.36671
-0.38078
-0.37243
-0.37952
-0.37977
-0.39135
-0.38721
-0.37761
-0.38991
-0.40510
-0.40026
-0.38775
-0.39145
-0.40955
-0.39651
-0.38685
-0.38716
-0.40214
-0.39126
-0.35401
-0.33645
-0.35026
-0.34273
-0.34624
-0.33795
-0.34411
-0.34352
-0.34021
-0.33290
-0.34744
-0.36291
-0.35811
-0.35324
-0.35919
-0.38383
-0.37502
-0.36731
-0.36735
-0.39771
-0.39661
-0.38250
-0.37954
-0.40744
-0.41831
-0.40180
-0.40232
-0.43593
-0.45039
-0.43551
-0.43468
-0.46088
-0.46755
-0.44111
-0.43188
-0.44747
-0.44343
-0.43484
-0.41382
-0.40840
-0.42235
-0.42620
-0.40556
-0.39013
-0.39500
-0.37575
-0.33175
-0.29699
-0.26196
-0.13330
0.05944
0.25593
0.44157
0.65890
0.89713
1.09280
1.22181
1.21330
1.09776
0.84807
0.49579
0.19054
-0.01742
-0.14382
-0.22479
-0.24859
-0.26676
-0.28220
-0.31840
-0.35897
-0.38891
-0.38689
-0.39318
-0.43332
-0.44584
-0.43204
-0.41774
-0.45353
-0.46822
-0.46933
-0.46438
-0.48196
-0.50493
-0.50210
-0.49102
-0.49320
-0.53411
-0.50081
-0.48616
-0.49670
-0.52182
-0.50331
-0.49654
-0.49695
-0.50547
-0.50048
-0.46650
-0.46703
-0.47329
-0.45895
-0.43073
-0.39400
-0.40598
-0.40518
-0.37504
-0.36533
-0.38054
-0.37754
-0.36872
-0.35497
-0.34323
-0.35326
-0.33862
-0.30854
-0.30231
-0.30199
-0.29645
-0.29224
-0.27815
-0.30514
-0.31640
-0.31526
-0.30889
-0.33904
-0.35598
-0.35987
-0.36074
-0.38212
-0.39596
-0.39324
-0.38120
-0.40415
-0.42938
-0.43033
-0.43093
-0.43439
-0.44919
-0.43278
-0.43010
-0.44362
-0.45518
-0.44360
-0.42134
-0.43997
-0.44603
-0.43264
-0.40386
-0.39781
-0.41244
-0.42284
-0.39696
-0.38818
-0.39717
-0.40315
-0.38578
-0.36286
-0.37344
-0.36891
-0.34823
-0.33367
-0.34506
-0.36297
-0.35307
-0.33946
-0.34816
-0.36000
-0.36520
-0.35049
-0.34410
-0.36937
-0.35976
-0.34635
-0.35296
-0.36927
-0.36738
-0.35296
-0.34867
-0.36912
-0.37217
-0.36052
-0.35916
-0.36611
-0.38143
-0.37434
-0.37515
-0.39159
-0.38752
-0.36473
-0.33087
-0.30187
-0.26443
-0.12163
0.07350
0.28893
0.50464
0.72216
0.93817
1.11369
1.13563
0.95501
0.65932
0.30218
-0.00144
-0.20901
-0.30571
-0.31388
-0.31029
-0.32624
-0.35309
-0.37080
-0.39469
-0.43845
-0.44613
-0.44175
-0.45144
-0.47835
-0.49539
-0.48088
-0.48846
-0.50063
-0.51013
-0.48984
-0.48112
-0.49847
-0.50676
-0.49238
-0.49703
-0.51304
-0.50582
-0.49598
-0.47934
-0.47334
-0.48106
-0.44655
-0.44241
-0.45096
-0.45620
-0.44417
-0.42106
-0.41812
-0.42001
-0.40397
-0.37676
-0.36011
-0.35260
-0.33019
-0.30527
-0.30701
-0.31368
-0.30220
-0.27972
-0.27155
-0.28334
-0.28242
-0.27018
-0.27078
-0.28812
-0.30630
-0.29981
-0.29133
-0.31309
-0.34619
-0.34442
-0.35479
-0.38187
-0.39466
-0.39207
-0.38469
-0.39930
-0.42015
-0.41577
-0.39013
-0.39229
-0.39597
-0.40316
-0.38601
-0.39442
-0.40995
-0.41275
-0.39927
-0.38508
-0.39609
-0.40630
-0.39801
-0.37953
-0.38567
-0.41413
-0.39728
-0.39642
-0.40482
-0.42428
-0.42231
-0.40784
-0.40997
-0.43441
-0.42391
-0.41479
-0.43312
-0.43575
-0.43013
-0.40237
-0.39282
-0.41254
-0.42408
-0.39570
-0.39351
-0.41057
-0.42324
-0.40700
-0.40456
-0.41839
-0.43632
-0.41696
-0.39594
-0.42151
-0.43355
-0.41626
-0.40510
-0.40975
-0.43068
-0.41447
-0.39544
-0.39551
-0.41295
-0.41010
-0.38371
-0.38225
-0.39702
-0.39264
-0.35729
-0.35661
-0.37038
-0.36944
-0.36514
-0.35041
-0.37948
-0.39074
-0.37113
-0.34520
-0.36036
-0.35502
-0.32452
-0.27617
-0.22389
-0.13016
0.05095
0.26366
0.46650
0.66607
0.88656
1.11371
1.22994
1.17268
0.93819
0.62346
0.26853
-0.03387
-0.22784
-0.31197
-0.29336
-0.31361
-0.35051
-0.35926
-0.36937
-0.40611
-0.44136
-0.43790
-0.43694
-0.44631
-0.45392
-0.45855
-0.43215
-0.43653
-0.46347
-0.45912
-0.44586
-0.44605
-0.46206
-0.47197
-0.45713
-0.45116
-0.46553
-0.49471
-0.48347
-0.47133
-0.49078
-0.50694
-0.49309
-0.47677
-0.49671
-0.51126
-0.48716
-0.48355
-0.49528
-0.50447
-0.48412
-0.45381
-0.44548
-0.45395
-0.43387
-0.42161
-0.42202
-0.41613
-0.41475
-0.38712
-0.36366
-0.38399
-0.38031
-0.35395
-0.34926
-0.35181
-0.37458
-0.37940
-0.37173
-0.39766
-0.40527
-0.40250
-0.39133
-0.40593
-0.43594
-0.43286
-0.43333
-0.45475
-0.46077
-0.48112
-0.46425
-0.46830
-0.48480
-0.48655
-0.48477
-0.48437
-0.49020
-0.49732
-0.48009
-0.48145
-0.48993
-0.50212
-0.48349
-0.46626
-0.46746
-0.46830
-0.44071
-0.40597
-0.39671
-0.40803
-0.39654
-0.37539
-0.36318
-0.38209
-0.37183
-0.35119
-0.34675
-0.36156
-0.37565
-0.34828
-0.35617
-0.37687
-0.38931
-0.38421
-0.37834
-0.38900
-0.40722
-0.39552
-0.39524
-0.39796
-0.41672
-0.41710
-0.40015
-0.40993
-0.43183
-0.42305
-0.40766
-0.42756
-0.44927
-0.43236
-0.41514
-0.40918
-0.44271
-0.44345
-0.42201
-0.40485
-0.41121
-0.41218
-0.39319
-0.38918
-0.40273
-0.42521
-0.41968
-0.41367
-0.40135
-0.39557
-0.38381
-0.35610
-0.34475
-0.35038
-0.30601
-0.25606
-0.19124
-0.05987
0.12656
0.32787
0.52428
0.71233
0.86606
1.00919
1.01687
0.84418
0.55186
0.24390
0.03043
-0.14998
-0.27652
-0.32307
-0.33026
-0.37981
-0.42278
-0.43646
-0.45269
-0.45364
-0.48242
-0.48634
-0.48374
-0.49706
-0.51423
-0.50690
-0.48898
-0.45808
-0.46619
-0.47102
-0.44626
-0.41461
-0.43179
-0.43826
-0.43039
-0.41502
-0.42250
-0.43719
-0.41992
-0.39474
-0.40861
-0.43640
-0.43084
-0.40972
-0.41803
-0.44107
-0.43301
-0.41139
-0.42582
-0.44401
-0.44341
-0.42357
-0.41703
-0.43775
-0.42276
-0.40116
-0.39452
-0.40192
-0.40323
-0.37075
-0.34924
-0.35639
-0.37117
-0.35564
-0.32910
-0.34422
-0.37053
-0.36977
-0.35432
-0.36593
-0.40002
-0.39724
-0.39734
-0.39282
-0.40715
-0.40832
-0.38972
-0.37782
-0.40272
-0.41375
-0.39633
-0.39826
-0.41093
-0.42987
-0.42551
-0.42579
-0.45691
-0.47141
-0.44078
-0.42968
-0.46129
-0.46420
-0.45653
-0.44612
-0.43574
-0.45924
-0.43747
-0.41719
-0.42694
-0.44013
-0.44273
-0.41120
-0.39202
-0.40172
-0.38601
-0.35803
-0.33776
-0.33907
-0.32715
-0.26801
-0.21903
-0.16400
-0.03376
0.16041
0.33675
0.50464
0.69539
0.88053
1.04495
1.04244
0.88480
0.62673
0.32149
0.04960
-0.12291
-0.22807
-0.26027
-0.27476
-0.31607
-0.35992
-0.38460
-0.40262
-0.43568
-0.46143
-0.45302
-0.45231
-0.47583
-0.47570
-0.46725
-0.46138
-0.47109
-0.47749
-0.47837
-0.46373
-0.46751
-0.48667
-0.47989
-0.46235
-0.46759
-0.48463
-0.48185
-0.47148
-0.47803
-0.48648
-0.48910
-0.46790
-0.45011
-0.46716
-0.46856
-0.43643
-0.41399
-0.41255
-0.43213
-0.39348
-0.35211
-0.34255
-0.34943
-0.33788
-0.31410
-0.32841
-0.32848
-0.31795
-0.30117
-0.31132
-0.33013
-0.34742
-0.33294
-0.33855
-0.36806
-0.37535
-0.37247
-0.38199
-0.39404
-0.39943
-0.38076
-0.36895
-0.38858
-0.41300
-0.41728
-0.38880
-0.40345
-0.43495
-0.43160
-0.41441
-0.42267
-0.45234
-0.45575
-0.43779
-0.43850
-0.45182
-0.45339
-0.43742
-0.42961
-0.44260
-0.43786
-0.41413
-0.38727
-0.37966
-0.39363
-0.36787
-0.36171
-0.37483
-0.38889
-0.37962
-0.37209
-0.36935
-0.39461
-0.36916
-0.35949
-0.36241
-0.38021
-0.38341
-0.37465
-0.36948
-0.37148
-0.37502
-0.34505
-0.34306
-0.35065
-0.36454
-0.35499
-0.35217
-0.36775
-0.38368
-0.37827
-0.37769
-0.39581
-0.43309
-0.42111
-0.40067
-0.41427
-0.42966
-0.40986
-0.39049
-0.38980
-0.38126
-0.37842
-0.36494
-0.37770
-0.37296
-0.36315
-0.36185
-0.33949
-0.34443
-0.33402
-0.29194
-0.25315
-0.21423
-0.15118
0.01483
0.19219
0.35734
0.55346
0.75256
0.95418
1.09118
1.06247
0.86804
0.57677
0.23996
-0.03649
-0.19013
-0.26778
-0.28684
-0.30295
-0.32761
-0.35106
-0.35000
-0.39128
-0.42911
-0.42428
-0.42377
-0.46248
-0.47556
-0.46155
-0.45737
-0.49312
-0.50442
-0.48461
-0.46692
-0.46522
-0.47544
-0.45263
-0.44162
-0.44073
-0.45173
-0.44946
-0.43600
-0.41927
-0.44353
-0.43544
-0.40699
-0.40833
-0.42162
-0.42560
-0.40472
-0.39665
-0.41873
-0.43006
-0.42164
-0.42163
-0.42819
-0.42290
-0.38448
-0.35790
-0.35077
-0.35284
-0.31880
-0.28343
-0.27630
-0.28454
-0.27991
-0.26483
-0.27802
-0.30206
-0.31116
-0.29994
-0.31710
-0.36409
-0.38945
-0.38393
-0.39370
-0.42345
-0.43984
-0.43009
-0.42789
-0.44547
-0.45794
-0.43820
-0.41005
-0.40946
-0.43575
-0.41763
-0.40967
-0.42099
-0.43669
-0.44081
-0.42538
-0.43772
-0.45251
-0.45578
-0.43852
-0.42754
-0.44737
-0.46374
-0.42385
-0.41334
-0.41185
-0.43645
-0.41302
-0.38324
-0.40479
-0.41366
-0.40867
-0.38909
-0.40373
-0.42615
-0.41627
-0.40789
-0.41038
-0.42848
-0.41444
-0.40229
-0.41785
-0.41928
-0.41103
-0.40077
-0.39405
-0.42749
-0.42999
-0.41602
-0.41173
-0.42684
-0.43783
-0.39660
-0.38417
-0.39411
-0.41222
-0.40094
-0.41283
-0.40590
-0.42549
-0.41328
-0.40133
-0.40536
-0.42301
-0.42072
-0.38565
-0.38490
-0.38187
-0.35909
-0.30381
-0.26367
-0.22578
-0.16077
-0.00070
0.19434
0.38244
0.61813
0.88334
1.12854
1.30377
1.35404
1.23976
0.95360
0.53791
0.15334
-0.10355
-0.24196
-0.30837
-0.30320
-0.30619
-0.31040
-0.33274
-0.38481
-0.41721
-0.41676
-0.42384
-0.45402
-0.47331
-0.47608
-0.47435
-0.49871
-0.50620
-0.49801
-0.47789
-0.48323
-0.48629
-0.47517
-0.46327
-0.47393
-0.48571
-0.48138
-0.45437
-0.46176
-0.47138
-0.44947
-0.42919
-0.44251
-0.44132
-0.43378
-0.40238
-0.38974
-0.40391
-0.39669
-0.37951
-0.37298
-0.38996
-0.39967
-0.37756
-0.36399
-0.37924
-0.38926
-0.37605
-0.35577
-0.35315
-0.35691
-0.35590
-0.34068
-0.33168
-0.36870
-0.35989
-0.36004
-0.37747
-0.40595
-0.40792
-0.40415
-0.39410
-0.42474
-0.45731
-0.42106
-0.39681
-0.40704
-0.39811
-0.38393
-0.36999
-0.38977
-0.40677
-0.40171
-0.38530
-0.39688
-0.39863
-0.38025
-0.35340
-0.36594
-0.38474
-0.38256
-0.37237
-0.37493
-0.39631
-0.39814
-0.38289
-0.37825
-0.40045
-0.41684
-0.37289
-0.37064
-0.39107
-0.40156
-0.36612
-0.35360
-0.35279
-0.34094
-0.30354
-0.23093
-0.13599
0.00059
0.19363
0.41111
0.62817
0.85914
1.06683
1.23158
1.21626
0.99165
0.66393
0.30406
0.05696
-0.09073
-0.19541
-0.23674
-0.25411
-0.30239
-0.35208
-0.37078
-0.36673
-0.43516
-0.44558
-0.44603
-0.45054
-0.47888
-0.50563
-0.51222
-0.49462
-0.51443
-0.53112
-0.53368
-0.52017
-0.52512
-0.54765
-0.54288
-0.51206
-0.52757
-0.53978
-0.52613
-0.49890
-0.49314
-0.52110
-0.52370
-0.50002
-0.47562
-0.47554
-0.48314
-0.44938
-0.43593
-0.44529
-0.44901
-0.43506
-0.41012
-0.40164
-0.40975
-0.38169
-0.34086
-0.32231
-0.32697
-0.32381
-0.29076
-0.28827
-0.30372
-0.32389
-0.29137
-0.29349
-0.32250
-0.33894
-0.31585
-0.32112
-0.35248
-0.37373
-0.38078
-0.37512
-0.39334
-0.41175
-0.40458
-0.39489
-0.40604
-0.43447
-0.43670
-0.41955
-0.42529
-0.43672
-0.42562
-0.39832
-0.40207
-0.40715
-0.41149
-0.39667
-0.40001
-0.42229
-0.41093
-0.39184
-0.39079
-0.40328
-0.42616
-0.40479
-0.39134
-0.38974
-0.40481
-0.39827
-0.37943
-0.38056
-0.40433
-0.40058
-0.38730
-0.41587
-0.41669
-0.41945
-0.40443
-0.41674
-0.45305
-0.45508
-0.44193
-0.44537
-0.44684
-0.44192
-0.41555
-0.39919
-0.43539
-0.44761
-0.43520
-0.41377
-0.43155
-0.44702
-0.43469
-0.42223
-0.42512
-0.44147
-0.43070
-0.40838
-0.41891
-0.44777
-0.43874
-0.40732
-0.41055
-0.43154
-0.43533
-0.41719
-0.39923
-0.42154
-0.43448
-0.42847
-0.41184
-0.41327
-0.43340
-0.41653
-0.38748
-0.41107
-0.41218
-0.41795
-0.39668
-0.39213
-0.40452
-0.39319
-0.37458
-0.39287
-0.39399
-0.39238
-0.37357
-0.36791
-0.38186
-0.39743
-0.37529
-0.37183
-0.37290
-0.36684
-0.34332
-0.31900
-0.33547
-0.34070
-0.32367
-0.30985
-0.32372
-0.34520
-0.32718
-0.29836
-0.30394
-0.30924
-0.26122
-0.21769
-0.18237
-0.10100
0.04965
0.25100
0.44177
0.63217
0.83237
1.02371
1.18168
1.22396
1.10982
0.90994
0.62695
0.30305
0.05914
-0.10566
-0.20417
-0.27734
-0.31650
-0.33139
-0.34595
-0.39707
-0.44180
-0.45542
-0.44635
-0.47913
-0.51199
-0.51146
-0.49848
-0.51440
-0.54211
-0.56110
-0.54230
-0.53819
-0.54187
-0.55636
-0.52636
-0.48181
-0.47796
-0.48923
-0.45789
-0.43698
-0.43578
-0.45871
-0.45753
-0.43003
-0.43132
-0.43850
-0.43343
-0.40347
-0.39624
-0.42776
-0.42527
-0.38404
-0.38114
-0.41140
-0.41353
-0.37450
-0.36958
-0.38177
-0.37446
-0.34998
-0.32357
-0.33301
-0.32653
-0.30843
-0.30234
-0.30220
-0.32067
-0.30412
-0.28602
-0.28530
-0.31237
-0.31921
-0.29681
-0.30856
-0.33769
-0.36662
-0.33696
-0.34495
-0.37027
-0.38824
-0.37400
-0.38181
-0.40524
-0.41123
-0.39910
-0.36809
-0.37772
-0.37293
-0.34476
-0.32157
-0.33656
-0.34378
-0.33976
-0.32333
-0.34208
-0.35987
-0.36667
-0.35029
-0.34735
-0.35701
-0.36251
-0.33794
-0.34066
-0.35920
-0.37375
-0.34196
-0.32835
-0.35834
-0.35799
-0.31203
-0.30506
-0.30445
-0.29857
-0.27154
-0.21880
-0.17649
-0.08244
0.07152
0.29784
0.50549
0.68010
0.89794
1.08951
1.19609
1.17660
1.01122
0.74183
0.36248
0.04421
-0.10599
-0.18398
-0.23655
-0.28456
-0.31314
-0.31959
-0.34564
-0.36960
-0.39976
-0.38648
-0.37982
-0.39634
-0.40803
-0.41578
-0.41288
-0.43018
-0.44116
-0.43302
-0.42244
-0.44641
-0.45514
-0.46337
-0.43893
-0.43959
-0.46063
-0.46308
-0.44083
-0.43756
-0.43729
-0.43286
-0.42253
-0.40382
-0.41379
-0.42207
-0.40150
-0.37727
-0.37964
-0.36909
-0.35680
-0.32576
-0.32698
-0.35338
-0.34275
-0.31886
-0.31479
-0.31921
-0.30899
-0.28123
-0.27401
-0.27711
-0.27464
-0.25489
-0.24392
-0.27155
-0.28475
-0.27266
-0.27825
-0.30781
-0.33470
-0.34301
-0.32092
-0.33107
-0.34295
-0.33018
-0.30646
-0.32376
-0.33197
-0.33491
-0.30577
-0.31725
-0.34032
-0.31814
-0.30076
-0.29377
-0.30382
-0.31385
-0.29458
-0.28798
-0.30489
-0.31961
-0.28949
-0.29158
-0.31396
-0.32290
-0.30253
-0.29000
-0.30654
-0.31526
-0.30796
-0.29106
-0.30987
-0.32925
-0.31948
-0.31550
-0.34025
-0.35207
-0.36198
-0.33657
-0.33715
-0.36300
-0.36560
-0.36062
-0.35121
-0.38037
-0.37904
-0.35970
-0.35140
-0.37081
-0.36624
-0.36255
-0.35322
-0.36339
-0.38109
-0.34555
-0.31676
-0.32878
-0.33152
-0.31127
-0.28594
-0.29254
-0.29477
-0.28897
-0.26278
-0.27680
-0.29439
-0.30208
-0.28569
-0.28893
-0.31244
-0.31926
-0.30034
-0.29688
-0.31774
-0.30849
-0.29325
-0.29624
-0.32171
-0.32682
-0.32207
-0.29942
-0.30681
-0.33189
-0.32405
-0.31278
-0.32064
-0.33763
-0.34145
-0.31109
-0.31519
-0.33182
-0.31978
-0.28872
-0.28066
-0.29505
-0.27987
-0.23934
-0.18551
-0.15892
-0.08610
0.06070
0.26218
0.45048
0.64490
0.88324
1.08897
1.26822
1.37496
1.32719
1.13720
0.79264
0.41842
0.14382
-0.03302
-0.15273
-0.21645
-0.20841
-0.20141
-0.21647
-0.26012
-0.30487
-0.28803
-0.28458
-0.32046
-0.33616
-0.32961
-0.32758
-0.35212
-0.36779
-0.36733
-0.36236
-0.36958
-0.40017
-0.39407
-0.38163
-0.39340
-0.39587
-0.38933
-0.37130
-0.37158
-0.38653
-0.38593
-0.36710
-0.35524
-0.37611
-0.38698
-0.37464
-0.35403
-0.37136
-0.37176
-0.37486
-0.36096
-0.35525
-0.37949
-0.36158
-0.35388
-0.36129
-0.38774
-0.37468
-0.36149
-0.36405
-0.36272
-0.33773
-0.30175
-0.29984
-0.31628
-0.31159
-0.29224
-0.27641
-0.30085
-0.29431
-0.27866
-0.26587
-0.28129
-0.29558
-0.28760
-0.26810
-0.28505
-0.30064
-0.29116
-0.27466
-0.29284
-0.32013
-0.29473
-0.29477
-0.31584
-0.33468
-0.32505
-0.31624
-0.33736
-0.35020
-0.34960
-0.32395
-0.31596
-0.36285
-0.36941
-0.33431
-0.32942
-0.34922
-0.36957
-0.35660
-0.34246
-0.35208
-0.35905
-0.33245
-0.30322
-0.29571
-0.30327
-0.28912
-0.27761
-0.27797
-0.29294
-0.29414
-0.26196
-0.27066
-0.28915
-0.29646
-0.28264
-0.27223
-0.28200
-0.27947
-0.25896
-0.25431
-0.26102
-0.27439
-0.26595
-0.26675
-0.28337
-0.30042
-0.29233
-0.27245
-0.28151
-0.29125
-0.29306
-0.28821
-0.28060
-0.29502
-0.31220
-0.30075
-0.30542
-0.32512
-0.32128
-0.30429
-0.30259
-0.33003
-0.33360
-0.32590
-0.32545
-0.32666
-0.33271
-0.31384
-0.29315
-0.29737
-0.30805
-0.29879
-0.27704
-0.29561
-0.31152
-0.31838
-0.30343
-0.29761
-0.32225
-0.31127
-0.28736
-0.28235
-0.28781
-0.30062
-0.28507
-0.28821
-0.30368
-0.31368
-0.31450
-0.28762
-0.30428
-0.30081
-0.28141
-0.27126
-0.26224
-0.23209
-0.18307
-0.10349
-0.01244
0.12708
0.31199
0.52391
0.74398
0.91786
1.09123
1.26634
1.32697
1.20246
0.95827
0.64745
0.32133
0.07604
-0.09167
-0.15829
-0.19146
-0.21511
-0.23667
-0.24473
-0.24252
-0.26298
-0.30014
-0.30035
-0.30489
-0.31940
-0.33902
-0.33228
-0.32967
-0.34620
-0.36949
-0.38040
-0.36052
-0.35797
-0.39008
-0.40032
-0.37775
-0.39364
-0.42000
-0.42561
-0.41157
-0.39894
-0.42295
-0.41843
-0.38879
-0.38212
-0.37176
-0.38894
-0.38996
-0.35469
-0.34981
-0.37042
-0.37269
-0.32812
-0.35114
-0.35807
-0.34454
-0.29877
-0.29665
-0.30981
-0.29347
-0.26392
-0.25876
-0.27511
-0.26460
-0.24215
-0.20478
-0.19100
-0.20513
-0.18878
-0.17449
-0.20275
-0.22726
-0.24201
-0.23333
-0.26458
-0.29540
-0.30360
-0.31249
-0.33171
-0.36481
-0.37869
-0.36420
-0.38214
-0.40857
-0.40478
-0.40375
-0.38973
-0.40717
-0.41982
-0.39671
-0.38558
-0.39746
-0.40750
-0.40126
-0.37469
-0.37309
-0.38052
-0.36341
-0.34376
-0.34128
-0.36290
-0.36664
-0.31915
-0.33000
-0.33622
-0.32008
-0.29805
-0.29979
-0.32324
-0.32468
-0.31652
-0.32728
-0.34879
-0.34623
-0.31429
-0.28542
-0.30601
-0.31041
-0.28499
-0.29049
-0.29753
-0.31909
-0.30201
-0.29807
-0.32017
-0.34199
-0.33137
-0.31329
-0.33203
-0.34256
-0.32638
-0.30978
-0.31682
-0.34263
-0.33538
-0.32343
-0.31980
-0.32232
-0.33430
-0.31780
-0.30212
-0.32107
-0.32705
-0.31997
-0.30077
-0.32218
-0.33453
-0.31182
-0.31640
-0.32903
-0.35974
-0.34203
-0.32807
-0.33977
-0.36530
-0.36344
-0.35604
-0.35272
-0.36832
-0.35474
-0.32545
-0.30033
-0.31979
-0.33735
-0.31070
-0.29719
-0.31977
-0.32937
-0.32169
-0.30109
-0.31523
-0.33285
-0.31686
-0.30914
-0.31795
-0.33760
-0.33325
-0.31043
-0.30578
-0.32462
-0.33223
-0.30689
-0.30063
-0.32757
-0.32953
-0.30571
-0.30584
-0.33658
-0.33612
-0.31230
-0.30403
-0.32914
-0.34403
-0.30949
-0.28785
-0.32155
-0.32055
-0.31639
-0.28466
-0.29344
-0.32380
-0.31346
-0.28652
-0.27976
-0.27947
-0.24488
-0.20077
-0.17568
-0.17201
-0.14723
-0.08272
-0.05476
-0.01012
0.15903
0.34900
0.55703
0.76625
0.97018
1.18167
1.33613
1.34455
1.18925
0.92447
0.56459
0.25295
0.04536
-0.09369
-0.13080
-0.15977
-0.19880
-0.21797
-0.23728
-0.26629
-0.30962
-0.32482
-0.32286
-0.33006
-0.35624
-0.37211
-0.35078
-0.33341
-0.35375
-0.34280
-0.32723
-0.33154
-0.34322
-0.35139
-0.34551
-0.35315
-0.37174
-0.37294
-0.35791
-0.33697
-0.34723
-0.35335
-0.33218
-0.30122
-0.29886
-0.29473
-0.30091
-0.27349
-0.26459
-0.27610
-0.27322
-0.24604
-0.24463
-0.24576
-0.25149
-0.23470
-0.21372
-0.23417
-0.21736
-0.20865
-0.19923
-0.20312
-0.19995
-0.18744
-0.15424
-0.16315
-0.16744
-0.16128
-0.15852
-0.18351
-0.20468
-0.21976
-0.20908
-0.22916
-0.26230
-0.29325
-0.28851
-0.28957
-0.30930
-0.31662
-0.30429
-0.28025
-0.29218
-0.30016
-0.28179
-0.26416
-0.27359
-0.29926
-0.29878
-0.27374
-0.27152
-0.29653
-0.29159
-0.26292
-0.27034
-0.29620
-0.30077
-0.28889
-0.26580
-0.28662
-0.28371
-0.27473
-0.26830
-0.27803
-0.29015
-0.26418
-0.25222
-0.27975
-0.28782
-0.27588
-0.28024
-0.29894
-0.33595
-0.33881
-0.33100
-0.33164
-0.32337
-0.32539
-0.30957
-0.30370
-0.31991
-0.31548
-0.27547
-0.27740
-0.30833
-0.30791
-0.28329
-0.27920
-0.29163
-0.29696
-0.28214
-0.29309
-0.30021
-0.30129
-0.29167
-0.28459
-0.30726
-0.31640
-0.30346
-0.29153
-0.29454
-0.31028
-0.30775
-0.28958
-0.28795
-0.29394
-0.30468
-0.29080
-0.30154
-0.30741
-0.31658
-0.32191
-0.31760
-0.34024
-0.35780
-0.34087
-0.32432
-0.33613
-0.35367
-0.33155
-0.29959
-0.31448
-0.32644
-0.31796
-0.30359
-0.31535
-0.32553
-0.31883
-0.29480
-0.30229
-0.31220
-0.31241
-0.31037
-0.31014
-0.31770
-0.32859
-0.30597
-0.30465
-0.31312
-0.32945
-0.31943
-0.29039
-0.29954
-0.30881
-0.27887
-0.26589
-0.27467
-0.29996
-0.31544
-0.29655
-0.30906
-0.32884
-0.32810
-0.29646
-0.30004
-0.30182
-0.28524
-0.24455
-0.23062
-0.22475
-0.17569
-0.10291
-0.01699
0.11464
0.31864
0.58061
0.83148
1.01451
1.22343
1.42537
1.50321
1.37067
1.03118
0.62863
0.28221
0.00766
-0.20693
-0.27770
-0.23001
-0.20876
-0.24642
-0.26886
-0.28653
-0.29505
-0.32344
-0.33712
-0.31629
-0.31223
-0.33961
-0.34412
-0.33642
-0.33599
-0.35816
-0.37215
-0.35842
-0.33761
-0.36046
-0.36988
-0.34966
-0.32650
-0.33133
-0.34556
-0.32271
-0.29566
-0.30232
-0.32070
-0.31858
-0.29585
-0.29261
-0.30545
-0.30078
-0.27819
-0.26478
-0.28254
-0.29054
-0.24676
-0.24127
-0.25352
-0.27279
-0.25479
-0.23180
-0.24213
-0.24156
-0.23180
-0.20987
-0.22117
-0.22184
-0.20627
-0.19355
-0.19658
-0.22963
-0.22491
-0.22454
-0.24044
-0.26929
-0.27913
-0.27025
-0.28517
-0.30059
-0.32127
-0.31390
-0.30752
-0.32278
-0.32996
-0.30922
-0.29829
-0.31669
-0.32953
-0.33466
-0.30553
-0.30392
-0.32694
-0.32809
-0.30707
-0.31338
-0.33639
-0.32566
-0.30956
-0.30201
-0.31824
-0.31780
-0.31151
-0.30747
-0.30568
-0.33031
-0.30484
-0.29088
-0.31427
-0.32955
-0.30781
-0.29419
-0.30101
-0.31363
-0.29979
-0.28251
-0.29460
-0.32443
-0.33306
-0.31396
-0.31050
-0.32737
-0.33554
-0.30248
-0.29988
-0.31312
-0.29598
-0.28317
-0.27221
-0.28981
-0.30216
-0.28544
-0.26670
-0.29023
-0.28901
-0.27954
-0.26250
-0.27171
-0.28562
-0.28633
-0.26697
-0.27861
-0.28996
-0.27804
-0.27161
-0.27827
-0.30520
-0.30243
-0.28727
-0.29401
-0.31010
-0.31979
-0.29878
-0.29141
-0.31383
-0.32204
-0.31463
-0.29698
-0.30250
-0.31198
-0.28298
-0.26122
-0.26534
-0.28311
-0.27265
-0.25077
-0.25582
-0.27068
-0.25085
-0.21472
-0.18677
-0.17734
-0.12461
0.03291
0.22407
0.42090
0.64374
0.91470
1.13846
1.32099
1.38385
1.27827
1.00066
0.57741
0.21712
-0.00955
-0.15248
-0.22430
-0.23628
-0.24156
-0.24597
-0.27772
-0.32388
-0.34063
-0.32015
-0.35523
-0.38629
-0.38720
-0.38626
-0.37787
-0.40441
-0.38489
-0.35517
-0.33034
-0.33866
-0.34049
-0.35251
-0.34946
-0.36443
-0.37839
-0.37120
-0.35509
-0.35695
-0.37203
-0.35704
-0.33241
-0.32246
-0.31871
-0.30409
-0.28024
-0.28059
-0.29219
-0.28297
-0.26499
-0.25263
-0.27166
-0.25607
-0.23454
-0.22129
-0.22390
-0.22613
-0.21095
-0.19942
-0.21865
-0.20905
-0.18273
-0.17028
-0.19380
-0.20789
-0.21012
-0.20870
-0.23504
-0.27735
-0.28468
-0.26975
-0.28077
-0.32560
-0.32768
-0.31572
-0.33000
-0.35567
-0.37799
-0.35585
-0.35262
-0.37324
-0.35468
-0.33601
-0.32070
-0.33245
-0.35750
-0.34659
-0.33707
-0.35367
-0.36760
-0.34424
-0.32238
-0.32443
-0.35588
-0.33835
-0.31417
-0.33394
-0.33839
-0.34860
-0.31502
-0.31683
-0.31736
-0.31197
-0.27990
-0.28712
-0.29691
-0.30553
-0.29790
-0.29114
-0.30903
-0.31891
-0.30843
-0.30747
-0.32164
-0.33890
-0.33727
-0.33066
-0.33490
-0.33797
-0.30728
-0.28638
-0.29028
-0.30902
-0.29591
-0.28579
-0.28604
-0.29536
-0.30100
-0.27967
-0.28873
-0.28672
-0.30908
-0.31273
-0.29263
-0.30105
-0.30852
-0.28897
-0.28169
-0.29257
-0.30505
-0.29036
-0.27630
-0.29643
-0.31297
-0.31058
-0.28645
-0.28803
-0.31186
-0.30783
-0.29502
-0.28997
-0.30397
-0.32088
-0.30282
-0.29806
-0.30071
-0.30684
-0.28632
-0.28306
-0.29590
-0.30559
-0.29800
-0.28522
-0.29628
-0.30513
-0.28589
-0.26894
-0.24984
-0.27331
-0.27448
-0.23440
-0.22593
-0.23118
-0.23058
-0.21435
-0.21199
-0.23017
-0.23728
-0.21930
-0.21252
-0.22866
-0.23375
-0.21147
-0.20663
-0.21420
-0.21055
-0.19067
-0.16876
-0.15056
-0.13880
-0.07303
0.08918
0.24264
0.41865
0.65739
0.90113
1.12584
1.26752
1.28837
1.16065
0.85661
0.48851
0.21223
0.05263
-0.05058
-0.12248
-0.12814
-0.11782
-0.13590
-0.17588
-0.22011
-0.22383
-0.21876
-0.25320
-0.26079
-0.25848
-0.25129
-0.25566
-0.28875
-0.29656
-0.27364
-0.29481
-0.32097
-0.31981
-0.29969
-0.32047
-0.33797
-0.32326
-0.31511
-0.32485
-0.34488
-0.34497
-0.34140
-0.34833
-0.35580
-0.34956
-0.33831
-0.31474
-0.29828
-0.28258
-0.24888
-0.21489
-0.19887
-0.19801
-0.17648
-0.15430
-0.14796
-0.16830
-0.15253
-0.11043
-0.10131
-0.13119
-0.12600
-0.10233
-0.08646
-0.11775
-0.14005
-0.12300
-0.13723
-0.16918
-0.21550
-0.21871
-0.21888
-0.24376
-0.28139
-0.27967
-0.28509
-0.29428
-0.33821
-0.33143
-0.32695
-0.34881
-0.37059
-0.36685
-0.35521
-0.33783
-0.34861
-0.34506
-0.30425
-0.27388
-0.27565
-0.26224
-0.22812
-0.21925
-0.23409
-0.25907
-0.23204
-0.22170
-0.23729
-0.24778
-0.24763
-0.24337
-0.25101
-0.26805
-0.25334
-0.23854
-0.24824
-0.27923
-0.28053
-0.25557
-0.27071
-0.29073
-0.29439
-0.27446
-0.27092
-0.30285
-0.31515
-0.30608
-0.29934
-0.30693
-0.32414
-0.30625
-0.30985
-0.31050
-0.32434
-0.30562
-0.26902
-0.27764
-0.26996
-0.24834
-0.22424
-0.24210
-0.24850
-0.24659
-0.24021
-0.23039
-0.23559
-0.23084
-0.20389
-0.21213
-0.22806
-0.23456
-0.21627
-0.20715
-0.23167
-0.25687
-0.23774
-0.20021
-0.21970
-0.22403
-0.20173
-0.15762
-0.14058
-0.11884
-0.00712
0.16785
0.35435
0.53557
0.77175
0.99226
1.16677
1.29685
1.31454
1.18255
0.87882
0.47644
0.16330
-0.03317
-0.15391
-0.21814
-0.22207
-0.21661
-0.20974
-0.22228
-0.25124
-0.25820
-0.24557
-0.25801
-0.27913
-0.28416
-0.26500
-0.27421
-0.29190
-0.29255
-0.27634
-0.28826
-0.30333
-0.31085
-0.29781
-0.29225
-0.31242
-0.31326
-0.29476
-0.28814
-0.30046
-0.30585
-0.29233
-0.27086
-0.27685
-0.28815
-0.28554
-0.27345
-0.28190
-0.28242
-0.26983
-0.23970
-0.24011
-0.24570
-0.24041
-0.22143
-0.22194
-0.22457
-0.21552
-0.20187
-0.18196
-0.17655
-0.18596
-0.14845
-0.11059
-0.11634
-0.13199
-0.11211
-0.09618
-0.11846
-0.14100
-0.14917
-0.14641
-0.17331
-0.20265
-0.20764
-0.20873
-0.22623
-0.25565
-0.26221
-0.25993
-0.27469
-0.29238
-0.30098
-0.28786
-0.29023
-0.31229
-0.31682
-0.29732
-0.29617
-0.30540
-0.32147
-0.30456
-0.29861
-0.31523
-0.33374
-0.33454
-0.31183
-0.33005
-0.34772
-0.32010
-0.31524
-0.31547
-0.33332
-0.33097
-0.30552
-0.28974
-0.30985
-0.30420
-0.28065
-0.28321
-0.30207
-0.31289
-0.29152
-0.28368
-0.29932
-0.30986
-0.29649
-0.29246
-0.30344
-0.30967
-0.29070
-0.28949
-0.29290
-0.29342
-0.27511
-0.26920
-0.26425
-0.27553
-0.28009
-0.26618
-0.26951
-0.29619
-0.28694
-0.28060
-0.27607
-0.30452
-0.31629
-0.30037
-0.29109
-0.30297
-0.30959
-0.26741
-0.26398
-0.26138
-0.28396
-0.26428
-0.24705
-0.26968
-0.28501
-0.25565
-0.23669
-0.24162
-0.23475
-0.19324
-0.13662
-0.05327
0.10477
0.30597
0.54333
0.78753
0.98883
1.18545
1.38273
1.46534
1.33079
1.05583
0.70075
0.36594
0.09055
-0.12168
-0.21106
-0.19526
-0.21146
-0.24932
-0.27304
-0.28311
-0.32036
-0.34642
-0.34056
-0.32832
-0.33873
-0.35450
-0.35797
-0.34611
-0.34209
-0.37459
-0.37679
-0.35784
-0.36315
-0.37902
-0.36757
-0.36336
-0.36340
-0.36508
-0.38881
-0.37720
-0.34684
-0.36581
-0.38373
-0.35008
-0.32644
-0.32427
-0.34093
-0.33515
-0.30540
-0.30706
-0.31254
-0.30770
-0.28709
-0.26820
-0.28324
-0.27863
-0.25090
-0.22596
-0.22790
-0.22736
-0.20233
-0.17336
-0.18889
-0.19731
-0.17368
-0.17227
-0.19032
-0.21460
-0.20868
-0.20075
-0.21343
-0.24457
-0.24881
-0.24063
-0.25879
-0.29374
-0.30120
-0.28321
-0.29494
-0.32004
-0.33748
-0.32995
-0.32385
-0.35930
-0.36234
-0.35130
-0.33461
-0.36032
-0.36758
-0.36350
-0.35100
-0.35862
-0.37301
-0.36444
-0.35104
-0.34863
-0.34489
-0.33507
-0.30508
-0.30187
-0.31875
-0.30897
-0.31349
-0.29753
-0.32171
-0.33948
-0.32439
-0.32981
-0.33045
-0.34721
-0.32790
-0.30780
-0.33032
-0.34469
-0.33292
-0.31841
-0.32318
-0.32978
-0.32554
-0.30533
-0.29738
-0.31226
-0.30702
-0.28343
-0.29161
-0.31072
-0.32893
-0.30031
-0.31204
-0.33480
-0.32920
-0.31524
-0.30964
-0.31635
-0.33177
-0.31779
-0.29008
-0.30822
-0.30885
-0.29299
-0.27039
-0.27494
-0.29213
-0.28282
-0.26799
-0.27297
-0.29254
-0.28827
-0.26719
-0.28393
-0.31816
-0.33487
-0.29659
-0.29747
-0.32802
-0.33264
-0.32119
-0.30320
-0.31769
-0.32405
-0.31636
-0.30913
-0.32623
-0.34726
-0.33092
-0.30868
-0.32591
-0.34941
-0.33064
-0.32730
-0.33048
-0.34932
-0.34631
-0.31842
-0.31971
-0.33885
-0.34387
-0.32493
-0.31871
-0.32574
-0.33005
-0.29963
-0.30585
-0.32283
-0.32939
-0.31808
-0.29562
-0.28866
-0.29825
-0.27601
-0.26969
-0.28433
-0.29162
-0.26767
-0.25846
-0.25639
-0.26735
-0.27055
-0.24305
-0.24592
-0.27219
-0.28382
-0.25921
-0.26941
-0.28170
-0.29672
-0.28762
-0.28616
-0.29801
-0.31365
-0.28806
-0.28264
-0.30401
-0.30124
-0.29906
-0.27379
-0.26081
-0.26875
-0.24470
-0.20799
-0.16860
-0.16351
-0.08375
0.07154
0.24392
0.42262
0.64468
0.87055
1.07397
1.24492
1.33580
1.31633
1.09877
0.75050
0.39415
0.15767
-0.02043
-0.14741
-0.20292
-0.18720
-0.18841
-0.24286
-0.29321
-0.32359
-0.31585
-0.34388
-0.36510
-0.35291
-0.34943
-0.35748
-0.39330
-0.40097
-0.37838
-0.37488
-0.39782
-0.39912
-0.37987
-0.35991
-0.35985
-0.36642
-0.35699
-0.34182
-0.34270
-0.35116
-0.34108
-0.31754
-0.31513
-0.33253
-0.31911
-0.28937
-0.29853
-0.30238
-0.29162
-0.27526
-0.26304
-0.27813
-0.26216
-0.24067
-0.23425
-0.23239
-0.22677
-0.20997
-0.20093
-0.21857
-0.20906
-0.19466
-0.17793
-0.18894
-0.19333
-0.17816
-0.15199
-0.16684
-0.20252
-0.20394
-0.18035
-0.19093
-0.22149
-0.23281
-0.24000
-0.25681
-0.27890
-0.28836
-0.26659
-0.27386
-0.31112
-0.31722
-0.30097
-0.30216
-0.31469
-0.32094
-0.29624
-0.30341
-0.33683
-0.34073
-0.32502
-0.30533
-0.31034
-0.31604
-0.31080
-0.29690
-0.31556
-0.32910
-0.33259
-0.30755
-0.32196
-0.34797
-0.33370
-0.31609
-0.31693
-0.33579
-0.32934
-0.31599
-0.29949
-0.32285
-0.30727
-0.29707
-0.27988
-0.30407
-0.31347
-0.29522
-0.29374
-0.29754
-0.30670
-0.27884
-0.25849
-0.26982
-0.27917
-0.27607
-0.26653
-0.26660
-0.29793
-0.29364
-0.30561
-0.31138
-0.32926
-0.33609
-0.31545
-0.30090
-0.32079
-0.32557
-0.30871
-0.28280
-0.28984
-0.31462
-0.30373
-0.28795
-0.30639
-0.32173
-0.30500
-0.28651
-0.28971
-0.30568
-0.29217
-0.27917
-0.26589
-0.28838
-0.28548
-0.25460
-0.26104
-0.27598
-0.28075
-0.26673
-0.25192
-0.26868
-0.26439
-0.23493
-0.21186
-0.23528
-0.25549
-0.24869
-0.23083
-0.24707
-0.26602
-0.26662
-0.23668
-0.27020
-0.27398
-0.27090
-0.25218
-0.25022
-0.28892
-0.29202
-0.27634
-0.27457
-0.26645
-0.27362
-0.25112
-0.24022
-0.25234
-0.27362
-0.24495
-0.22933
-0.23184
-0.22542
-0.17850
-0.11437
-0.05663
0.05447
0.25245
0.46559
0.66674
0.86450
1.05825
1.25127
1.35491
1.27564
1.05390
0.73311
0.37402
0.11576
-0.05333
-0.14562
-0.16795
-0.19491
-0.21403
-0.22117
-0.22909
-0.26994
-0.30197
-0.29988
-0.29902
-0.32079
-0.31849
-0.28283
-0.28141
-0.29111
-0.32377
-0.32409
-0.30918
-0.30028
-0.33104
-0.33676
-0.31213
-0.31753
-0.32630
-0.34471
-0.31665
-0.31949
-0.33589
-0.32394
-0.32010
-0.29563
-0.30749
-0.32410
-0.29800
-0.26716
-0.27142
-0.29497
-0.25735
-0.22875
-0.22755
-0.22376
-0.20197
-0.16845
-0.16383
-0.16215
-0.15663
-0.13690
-0.12453
-0.13335
-0.13713
-0.11844
-0.11159
-0.13050
-0.14142
-0.13054
-0.12330
-0.14280
-0.15337
-0.13362
-0.12298
-0.14125
-0.19343
-0.17752
-0.17997
-0.20700
-0.23318
-0.23411
-0.22090
-0.24280
-0.27605
-0.28133
-0.25993
-0.26255
-0.29068
-0.29934
-0.28423
-0.27384
-0.28404
-0.30486
-0.27787
-0.25909
-0.27608
-0.29993
-0.28058
-0.25289
-0.26041
-0.28679
-0.29349
-0.27224
-0.26472
-0.28914
-0.29448
-0.27606
-0.28695
-0.29630
-0.31621
-0.30458
-0.28246
-0.30491
-0.31686
-0.28980
-0.25548
-0.27056
-0.28580
-0.25234
-0.24958
-0.27265
-0.28716
-0.26666
-0.24934
-0.27331
-0.29221
-0.27624
-0.25551
-0.26837
-0.28581
-0.26977
-0.24339
-0.25083
-0.24254
-0.25128
-0.22688
-0.22847
-0.24500
-0.23789
-0.21967
-0.20779
-0.22736
-0.21279
-0.15900
-0.12686
-0.11984
-0.05240
0.11286
0.31519
0.51598
0.72825
0.97930
1.22864
1.41780
1.43502
1.19479
0.83628
0.41949
0.06435
-0.16272
-0.26948
-0.26345
-0.24146
-0.25057
-0.25256
-0.26551
-0.30044
-0.33601
-0.32260
-0.32503
-0.34581
-0.36538
-0.36786
-0.33203
-0.33762
-0.35882
-0.34644
-0.32023
-0.32130
-0.33005
-0.32108
-0.29341
-0.29183
-0.31636
-0.30987
-0.28151
-0.30400
-0.31386
-0.30541
-0.29203
-0.29446
-0.28973
-0.26841
-0.24634
-0.22498
-0.24080
-0.23725
-0.22064
-0.22600
-0.22670
-0.22399
-0.19734
-0.16493
-0.16490
-0.18252
-0.17179
-0.15307
-0.16732
-0.16964
-0.15903
-0.14236
-0.14287
-0.17288
-0.17540
-0.17545
-0.19073
-0.21470
-0.23437
-0.22490
-0.21962
-0.25756
-0.27448
-0.27797
-0.27264
-0.28636
-0.31133
-0.30527
-0.30340
-0.31853
-0.32794
-0.32946
-0.30971
-0.31437
-0.33031
-0.33124
-0.33604
-0.33275
-0.33489
-0.33675
-0.31752
-0.29125
-0.31063
-0.31324
-0.30577
-0.29183
-0.30948
-0.32055
-0.29885
-0.28145
-0.29163
-0.30283
-0.29265
-0.28058
-0.27616
-0.29284
-0.28791
-0.27491
-0.26742
-0.29226
-0.28713
-0.26742
-0.27624
-0.29351
-0.30145
-0.28843
-0.29556
-0.32224
-0.31808
-0.31535
-0.29782
-0.31789
-0.32787
-0.30563
-0.28859
-0.30978
-0.31493
-0.31111
-0.30498
-0.31083
-0.33626
-0.35192
-0.33417
-0.30768
-0.33495
-0.30932
-0.27458
-0.27764
-0.26942
-0.27073
-0.25801
-0.25930
-0.26432
-0.27012
-0.24654
-0.23990
-0.24325
-0.25360
-0.24085
-0.19958
-0.15908
-0.15061
-0.09073
0.04763
0.23503
0.42691
0.68273
0.94898
1.16766
1.36415
1.48714
1.41914
1.12653
0.68187
0.26077
-0.01156
-0.17635
-0.26630
-0.27241
-0.26409
-0.28029
-0.33143
-0.35585
-0.36346
-0.36241
-0.38835
-0.41106
-0.38486
-0.35237
-0.34867
-0.37104
-0.36919
-0.33976
-0.32688
-0.34420
-0.35043
-0.33865
-0.31695
-0.33938
