-0.08053
-0.09951
-0.09277
-0.09652
-0.09425
-0.09585
-0.09267
-0.08293
-0.06541
-0.04260
-0.02490
0.00557
0.06552
0.13245
0.22878
0.33392
0.45261
0.58967
0.74646
0.87430
0.88694
0.69661
0.25535
-0.37593
-0.99101
-1.45085
-1.74436
-1.94110
-2.09551
-2.21101
-2.27798
-2.27430
-2.20723
-2.09901
-1.93605
-1.77985
-1.61244
-1.48134
-1.38061
-1.27759
-1.15312
-0.98959
-0.83023
-0.70443
-0.60976
-0.53691
-0.48272
-0.38337
-0.20943
-0.02010
0.17887
0.30244
0.35032
0.34333
0.30598
0.30893
0.32466
0.35156
0.38790
0.39261
0.41974
0.44516
0.45163
0.46578
0.47656
0.49561
0.53867
0.56553
0.60583
0.63364
0.63801
0.65881
0.67987
0.70713
0.73817
0.77658
0.81375
0.84641
0.86227
0.87186
0.89809
0.91972
0.93666
0.94811
0.95054
0.94247
0.94007
0.92016
0.88827
0.84361
0.81318
0.78230
0.74765
0.70480
0.64967
0.59447
0.53761
0.48123
0.42528
0.39338
0.36353
0.32651
0.28286
0.23042
0.18672
0.15040
0.11249
0.09093
0.07484
0.05756
0.03394
0.01622
-0.01080
-0.01524
-0.01768
-0.02137
-0.01025
0.00601
0.00264
-0.00653
-0.00643
-0.01522
-0.01361
-0.01060
-0.01138
-0.00104
0.00052
-0.00985
-0.01718
-0.03649
-0.04037
-0.04452
-0.04976
-0.03956
-0.02719
-0.02856
-0.04717
-0.05653
-0.06664
-0.07055
-0.05876
-0.04522
-0.03884
-0.04839
-0.05714
-0.06418
-0.08050
-0.07688
-0.09161
-0.07793
-0.06184
-0.05761
-0.06944
-0.08442
-0.08960
-0.09886
-0.09497
-0.08797
-0.08455
-0.07752
-0.09449
-0.07675
-0.08405
-0.09404
-0.10278
-0.09328
-0.09667
-0.08112
-0.08889
-0.09230
-0.08281
-0.08862
-0.09605
-0.08950
-0.09146
-0.07949
-0.07841
-0.06440
-0.03629
-0.03288
-0.00534
0.01936
0.04681
0.07295
0.09867
0.12931
0.17340
0.20617
0.21705
0.20874
0.16288
0.14655
0.15956
0.17131
0.16357
0.13118
0.08452
0.03663
-0.00239
-0.03350
-0.04146
-0.05403
-0.08206
-0.12551
-0.14393
-0.14959
-0.14441
-0.13289
-0.13511
-0.10967
-0.10046
-0.10145
-0.11473
-0.10596
-0.04275
0.10814
0.36380
0.64529
0.94120
1.19555
1.43012
1.60441
1.67818
1.64562
1.49616
1.19587
0.77737
0.37015
0.07591
-0.07871
-0.13731
-0.16351
-0.18278
-0.21637
-0.27818
-0.30485
-0.31928
-0.32998
-0.33596
-0.34755
-0.34730
-0.34475
-0.35337
-0.35149
-0.35529
-0.35430
-0.36931
-0.38161
-0.38332
-0.37553
-0.36659
-0.36391
-0.37592
-0.38436
-0.38635
-0.40184
-0.40322
-0.40899
-0.41481
-0.42470
-0.42018
-0.44035
-0.46102
-0.48645
-0.49709
-0.52028
-0.52564
-0.54466
-0.56127
-0.58215
-0.62438
-0.65904
-0.66466
-0.68205
-0.69649
-0.69870
-0.70032
-0.70449
-0.72141
-0.71619
-0.71391
-0.69303
-0.66743
-0.64220
-0.61026
-0.57489
-0.54340
-0.51691
-0.48053
-0.43406
-0.38553
-0.34377
-0.31184
-0.27369
-0.25293
-0.23163
-0.22149
-0.20771
-0.18793
-0.18296
-0.17092
-0.16817
-0.15428
-0.15898
-0.17724
-0.17315
-0.17363
-0.15988
-0.15986
-0.15384
-0.15304
-0.17097
-0.17787
-0.18580
-0.19372
-0.19284
-0.17334
-0.15657
-0.16690
-0.16032
-0.17791
-0.19330
-0.19074
-0.18055
-0.14141
-0.10633
-0.06352
-0.02789
-0.00358
0.01509
0.04396
0.07647
0.12808
0.20078
0.29228
0.42548
0.58508
0.74032
0.85121
0.94064
1.00251
1.10750
1.23942
1.38092
1.48826
1.54459
1.54168
1.43190
1.16155
0.67723
0.03689
-0.66481
-1.22967
-1.60384
-1.70452
-1.64214
-1.48808
-1.29583
-1.14739
-1.01566
-0.87550
-0.71468
-0.55894
-0.46258
-0.42855
-0.41744
-0.42643
-0.42529
-0.41137
-0.40730
-0.40550
-0.41244
-0.41550
-0.43084
-0.42351
-0.40822
-0.39495
-0.39978
-0.41077
-0.41769
-0.41637
-0.42672
-0.42464
-0.43172
-0.42065
-0.41445
-0.41848
-0.42283
-0.43487
-0.43338
-0.43041
-0.41648
-0.40734
-0.40241
-0.37218
-0.37290
-0.35942
-0.33693
-0.32091
-0.29471
-0.26731
-0.24051
-0.22522
-0.20287
-0.19916
-0.19033
-0.17787
-0.17076
-0.16510
-0.14828
-0.15250
-0.15636
-0.18058
-0.19658
-0.23264
-0.24413
-0.24207
-0.26183
-0.28724
-0.30690
-0.33143
-0.34986
-0.35780
-0.36563
-0.36601
-0.36668
-0.35879
-0.36996
-0.38161
-0.37965
-0.38995
-0.40437
-0.40277
-0.39703
-0.38970
-0.37928
-0.37806
-0.39464
-0.41042
-0.42086
-0.40594
-0.39726
-0.37986
-0.37107
-0.38030
-0.38279
-0.39936
-0.41431
-0.40164
-0.39541
-0.38933
-0.37906
-0.38674
-0.39001
-0.40336
-0.40913
-0.41592
-0.42940
-0.42048
-0.40469
-0.40193
-0.40852
-0.41906
-0.42026
-0.42993
-0.42511
-0.41710
-0.41151
-0.41176
-0.41610
-0.41528
-0.43418
-0.42567
-0.40330
-0.37953
-0.35287
-0.32465
-0.31249
-0.29249
-0.27768
-0.27568
-0.24670
-0.19468
-0.16067
-0.11513
-0.11838
-0.15319
-0.19071
-0.20840
-0.21324
-0.19636
-0.19454
-0.20896
-0.26515
-0.31179
-0.36775
-0.40320
-0.42947
-0.44434
-0.45976
-0.47059
-0.47643
-0.49499
-0.50089
-0.50487
-0.51060
-0.51053
-0.49979
-0.48985
-0.48328
-0.48339
-0.46101
-0.41635
-0.28175
-0.05955
0.23447
0.52164
0.77944
1.01863
1.21582
1.33542
1.33886
1.21343
0.97363
0.60255
0.18745
-0.14036
-0.34926
-0.45483
-0.50436
-0.53362
-0.56990
-0.61854
-0.64156
-0.65970
-0.66243
-0.66845
-0.68597
-0.69274
-0.70976
-0.71108
-0.70228
-0.70239
-0.70334
-0.70041
-0.71536
-0.73485
-0.74145
-0.73858
-0.72271
-0.71972
-0.72046
-0.71614
-0.72801
-0.74416
-0.74774
-0.75553
-0.75600
-0.75793
-0.75117
-0.76280
-0.78640
-0.80218
-0.82407
-0.84067
-0.85527
-0.87359
-0.87048
-0.89282
-0.91385
-0.93643
-0.95515
-0.98140
-1.00293
-0.99987
-1.00112
-1.01159
-1.00492
-1.00009
-0.98615
-0.98771
-0.96738
-0.93337
-0.89609
-0.84805
-0.81854
-0.78400
-0.75304
-0.71970
-0.70203
-0.67001
-0.62676
-0.58967
-0.56374
-0.56073
-0.55634
-0.55339
-0.54697
-0.54254
-0.53235
-0.52350
-0.50855
-0.51441
-0.50871
-0.52025
-0.53137
-0.52870
-0.52417
-0.52574
-0.50645
-0.49833
-0.51409
-0.51926
-0.52872
-0.53032
-0.52804
-0.51805
-0.50869
-0.49834
-0.50843
-0.52162
-0.53701
-0.52900
-0.50700
-0.49373
-0.46394
-0.42964
-0.39888
-0.38128
-0.36756
-0.35262
-0.32296
-0.27290
-0.20427
-0.16205
-0.17299
-0.19864
-0.23305
-0.24586
-0.23931
-0.23294
-0.25191
-0.28330
-0.33065
-0.38807
-0.43585
-0.46461
-0.48816
-0.50716
-0.53183
-0.53052
-0.52514
-0.52624
-0.51599
-0.52669
-0.53537
-0.52958
-0.50892
-0.51232
-0.48755
-0.47506
-0.42426
-0.29249
-0.05389
0.22694
0.52861
0.79668
1.02343
1.22176
1.32897
1.31604
1.20052
0.97032
0.62207
0.21160
-0.12081
-0.32659
-0.43916
-0.48368
-0.51933
-0.54675
-0.59032
-0.62601
-0.62865
-0.62673
-0.62429
-0.62955
-0.64691
-0.64816
-0.65545
-0.65451
-0.65162
-0.63683
-0.63016
-0.65430
-0.66452
-0.67042
-0.67990
-0.66663
-0.64806
-0.64011
-0.64350
-0.64747
-0.66380
-0.67734
-0.69494
-0.68689
-0.69645
-0.69200
-0.69338
-0.71880
-0.72976
-0.75680
-0.76772
-0.77815
-0.78678
-0.79851
-0.79880
-0.81387
-0.80834
-0.81542
-0.83564
-0.84060
-0.84083
-0.82153
-0.79925
-0.77534
-0.75467
-0.73257
-0.71396
-0.69564
-0.65726
-0.62349
-0.58947
-0.55232
-0.53114
-0.51486
-0.50057
-0.48586
-0.47672
-0.46389
-0.44795
-0.42633
-0.42493
-0.42436
-0.41673
-0.41269
-0.40407
-0.37230
-0.35109
-0.29868
-0.25326
-0.19336
-0.13326
-0.06087
0.03691
0.15672
0.29275
0.45753
0.55346
0.50140
0.22769
-0.30060
-0.96012
-1.53296
-1.92640
-2.14464
-2.27536
-2.37906
-2.45152
-2.47401
-2.45118
-2.36852
-2.22638
-2.06718
-1.89728
-1.74054
-1.60753
-1.53405
-1.42685
-1.26701
-1.06820
-0.91697
-0.83717
-0.79091
-0.70898
-0.54418
-0.31230
-0.06355
0.09533
0.16785
0.15170
0.12511
0.10563
0.12179
0.15114
0.17012
0.19631
0.20655
0.23324
0.27331
0.29889
0.31777
0.33447
0.35205
0.37022
0.39580
0.43433
0.47375
0.50288
0.54041
0.55853
0.57121
0.60380
0.64682
0.68011
0.71212
0.74497
0.76946
0.77489
0.77880
0.76819
0.75812
0.74995
0.75084
0.72974
0.70051
0.65443
0.59117
0.52528
0.46898
0.42581
0.37437
0.32461
0.26354
0.21296
0.14617
0.09069
0.03865
0.00176
-0.03942
-0.05973
-0.06744
-0.10652
-0.13308
-0.15694
-0.18443
-0.18627
-0.19273
-0.19498
-0.18349
-0.19227
-0.20170
-0.21579
-0.22139
-0.23934
-0.22203
-0.21587
-0.20379
-0.19654
-0.19109
-0.20453
-0.21212
-0.22167
-0.22052
-0.22303
-0.22310
-0.20896
-0.20682
-0.21218
-0.23168
-0.23791
-0.24905
-0.24103
-0.23784
-0.22202
-0.22704
-0.23687
-0.24591
-0.25888
-0.26293
-0.27044
-0.25851
-0.25277
-0.24549
-0.23548
-0.23771
-0.24439
-0.26106
-0.25940
-0.24374
-0.23672
-0.22773
-0.23967
-0.24421
-0.25254
-0.25346
-0.24010
-0.24613
-0.24656
-0.22740
-0.22503
-0.22348
-0.22645
-0.24339
-0.23011
-0.23517
-0.23757
-0.21032
-0.19891
-0.19940
-0.20861
-0.21754
-0.20851
-0.19021
-0.16228
-0.12326
-0.09202
-0.06840
-0.04208
-0.04384
-0.04687
-0.01187
0.03555
0.10184
0.15941
0.16213
0.11526
0.07717
0.06843
0.06249
0.09057
0.08055
0.06228
0.01733
-0.03433
-0.06597
-0.12150
-0.14868
-0.17440
-0.19544
-0.18869
-0.19803
-0.20206
-0.20158
-0.20539
-0.20303
-0.21169
-0.20500
-0.19548
-0.18396
-0.16386
-0.11687
-0.02207
0.16550
0.41958
0.71967
0.99046
1.23341
1.44573
1.60579
1.64281
1.55721
1.37547
1.05785
0.65708
0.29662
0.04796
-0.08344
-0.15420
-0.18967
-0.23828
-0.29410
-0.32491
-0.34283
-0.34438
-0.34233
-0.34277
-0.35728
-0.37087
-0.38682
-0.37412
-0.37578
-0.37235
-0.36938
-0.37183
-0.37142
-0.38886
-0.39895
-0.40398
-0.39908
-0.38970
-0.39186
-0.40309
-0.40058
-0.42219
-0.43538
-0.43700
-0.44733
-0.44474
-0.44641
-0.46577
-0.49250
-0.51423
-0.54034
-0.56152
-0.58202
-0.60179
-0.60614
-0.62765
-0.64724
-0.67844
-0.70669
-0.72950
-0.74455
-0.74139
-0.74345
-0.73201
-0.72722
-0.72627
-0.72362
-0.70579
-0.68795
-0.65082
-0.61089
-0.56776
-0.53193
-0.48892
-0.45732
-0.42025
-0.38700
-0.35121
-0.29944
-0.26231
-0.24288
-0.21058
-0.19634
-0.19414
-0.19233
-0.18435
-0.17321
-0.15971
-0.14845
-0.14843
-0.15195
-0.15349
-0.15524
-0.15299
-0.14543
-0.13729
-0.12150
-0.12339
-0.13235
-0.13335
-0.14248
-0.15473
-0.14577
-0.14532
-0.12363
-0.11776
-0.11941
-0.11043
-0.10919
-0.10114
-0.07890
-0.04238
0.00149
0.04877
0.06975
0.10539
0.14210
0.18792
0.26477
0.35969
0.50137
0.67359
0.82900
0.95190
1.03297
1.09239
1.19451
1.32060
1.45653
1.55636
1.59589
1.53803
1.34777
0.98700
0.42494
-0.25595
-0.89661
-1.36909
-1.61142
-1.64114
-1.54381
-1.38274
-1.21714
-1.09903
-0.98269
-0.82615
-0.66231
-0.50233
-0.36410
-0.30154
-0.28637
-0.30815
-0.29697
-0.28660
-0.27965
-0.26556
-0.24966
-0.25388
-0.26565
-0.26423
-0.26567
-0.24876
-0.25133
-0.24343
-0.23181
-0.24198
-0.24815
-0.25348
-0.25841
-0.25135
-0.23648
-0.23116
-0.22876
-0.23573
-0.24273
-0.24333
-0.23850
-0.22637
-0.22121
-0.18466
-0.17296
-0.15581
-0.13769
-0.13459
-0.12415
-0.10725
-0.07148
-0.04879
-0.01415
0.00851
0.03056
0.02584
0.01778
0.03719
0.04265
0.05852
0.06960
0.06569
0.04721
0.02580
-0.00062
-0.01946
-0.02778
-0.04328
-0.05149
-0.06145
-0.07175
-0.10385
-0.11714
-0.12902
-0.13377
-0.12983
-0.13286
-0.12456
-0.13137
-0.13726
-0.15676
-0.15656
-0.16588
-0.16343
-0.14930
-0.13257
-0.13289
-0.13786
-0.13767
-0.13951
-0.14661
-0.13544
-0.12081
-0.10443
-0.10076
-0.11575
-0.12076
-0.11765
-0.12075
-0.13099
-0.11585
-0.10787
-0.10549
-0.10445
-0.11407
-0.12110
-0.12616
-0.14078
-0.12289
-0.11559
-0.10837
-0.11203
-0.11442
-0.12071
-0.12281
-0.11409
-0.11550
-0.11072
-0.10741
-0.09878
-0.11417
-0.11031
-0.11324
-0.12097
-0.10461
-0.08377
-0.06558
-0.03987
-0.01673
-0.00022
0.00756
0.01723
0.04264
0.04463
0.07785
0.13240
0.17246
0.22470
0.23194
0.21135
0.18183
0.15716
0.15902
0.17351
0.18708
0.16768
0.13587
0.08134
0.03574
-0.01188
-0.05233
-0.05746
-0.08009
-0.09806
-0.11129
-0.14634
-0.15087
-0.15580
-0.13978
-0.12164
-0.12114
-0.10797
-0.10030
-0.10558
-0.09802
-0.05859
0.03825
0.25637
0.53017
0.82456
1.07887
1.30635
1.49988
1.61660
1.62914
1.51864
1.31152
0.97337
0.58255
0.25532
0.05120
-0.05821
-0.10114
-0.13171
-0.17481
-0.22194
-0.24992
-0.26845
-0.28184
-0.29245
-0.29551
-0.29551
-0.29277
-0.28678
-0.28773
-0.28889
-0.29720
-0.30994
-0.31998
-0.31319
-0.31096
-0.30717
-0.31281
-0.31353
-0.31699
-0.33577
-0.34146
-0.35472
-0.35962
-0.36880
-0.36489
-0.35430
-0.37820
-0.40216
-0.42828
-0.46667
-0.47240
-0.48982
-0.49747
-0.50900
-0.52586
-0.54767
-0.56380
-0.58691
-0.60376
-0.61295
-0.62613
-0.59648
-0.58005
-0.57707
-0.56527
-0.55868
-0.53770
-0.50630
-0.48124
-0.42944
-0.38989
-0.35871
-0.32547
-0.30815
-0.27907
-0.23787
-0.19975
-0.15972
-0.13412
-0.11293
-0.10483
-0.11268
-0.12065
-0.11688
-0.10069
-0.09616
-0.09101
-0.08121
-0.08182
-0.08507
-0.09283
-0.09849
-0.08797
-0.08724
-0.08452
-0.08644
-0.09315
-0.09909
-0.09402
-0.10064
-0.09711
-0.09394
-0.09831
-0.08540
-0.08142
-0.08386
-0.09161
-0.09859
-0.08934
-0.06407
-0.05256
-0.03105
-0.00261
0.02614
0.05078
0.06913
0.08535
0.10973
0.13617
0.19153
0.23832
0.25121
0.24155
0.20239
0.18003
0.15738
0.18508
0.19498
0.18119
0.14369
0.09283
0.03824
0.00440
-0.02029
-0.02833
-0.04686
-0.06506
-0.07896
-0.09439
-0.10385
-0.10739
-0.10511
-0.09635
-0.08016
-0.06536
-0.06956
-0.07844
-0.09327
-0.07388
-0.03297
0.10200
0.31355
0.59555
0.89131
1.15268
1.38662
1.54496
1.63097
1.60519
1.47052
1.22497
0.88455
0.50571
0.21234
0.03872
-0.04536
-0.08768
-0.09739
-0.14168
-0.18139
-0.21912
-0.22906
-0.22812
-0.23820
-0.25447
-0.25793
-0.26092
-0.25759
-0.25352
-0.25332
-0.26577
-0.26187
-0.27152
-0.28512
-0.27538
-0.26193
-0.26218
-0.26770
-0.28422
-0.29768
-0.30613
-0.31868
-0.34189
-0.32936
-0.32060
-0.33452
-0.34840
-0.36566
-0.39364
-0.41243
-0.42901
-0.44663
-0.45808
-0.46749
-0.48359
-0.50150
-0.52078
-0.53351
-0.54799
-0.55042
-0.52466
-0.52262
-0.50007
-0.49075
-0.48013
-0.45975
-0.44409
-0.39869
-0.36094
-0.32065
-0.29334
-0.27091
-0.26077
-0.24991
-0.24240
-0.22333
-0.20309
-0.19688
-0.18513
-0.18670
-0.18466
-0.19689
-0.20043
-0.20174
-0.18088
-0.14518
-0.10841
-0.06160
-0.00498
0.07343
0.15083
0.25076
0.37809
0.54424
0.67962
0.68256
0.42646
-0.14716
-0.89045
-1.55709
-2.00960
-2.25494
-2.37742
-2.44353
-2.45422
-2.43372
-2.37751
-2.27498
-2.11509
-1.94073
-1.76546
-1.63381
-1.54858
-1.45520
-1.30787
-1.12752
-0.97894
-0.88422
-0.83340
-0.77561
-0.67732
-0.48769
-0.25662
-0.04541
0.07651
0.12070
0.11358
0.09305
0.10734
0.13163
0.14744
0.16290
0.17043
0.18900
0.21553
0.23196
0.27147
0.29523
0.30708
0.31346
0.33401
0.35393
0.38922
0.41914
0.47132
0.50450
0.51422
0.55866
0.56694
0.58185
0.60752
0.61730
0.64414
0.65204
0.65227
0.62922
0.59255
0.56066
0.53225
0.51248
0.46580
0.42092
0.36486
0.27725
0.20517
0.14923
0.08567
0.03635
-0.00316
-0.05205
-0.09898
-0.15563
-0.19871
-0.25029
-0.31123
-0.35212
-0.37160
-0.38529
-0.39577
-0.41738
-0.44713
-0.47568
-0.50423
-0.51746
-0.50781
-0.51501
-0.51585
-0.51914
-0.53205
-0.54788
-0.56702
-0.57007
-0.58293
-0.56663
-0.56173
-0.56267
-0.56293
-0.56713
-0.56865
-0.57909
-0.58988
-0.60790
-0.62443
-0.62367
-0.61712
-0.61722
-0.63048
-0.65401
-0.67840
-0.66998
-0.67201
-0.66224
-0.65789
-0.68192
-0.68889
-0.69109
-0.69465
-0.69160
-0.69035
-0.68752
-0.69525
-0.70871
-0.71937
-0.73409
-0.74703
-0.73665
-0.72006
-0.69566
-0.68705
-0.71641
-0.73711
-0.75917
-0.76514
-0.76637
-0.76801
-0.76766
-0.77499
-0.78588
-0.80104
-0.79626
-0.80451
-0.79028
-0.79218
-0.78786
-0.78842
-0.79737
-0.78255
-0.78079
-0.78942
-0.81200
-0.83125
-0.82085
-0.79120
-0.73971
-0.71124
-0.72478
-0.72882
-0.72962
-0.69584
-0.65335
-0.60798
-0.57655
-0.55882
-0.57133
-0.58745
-0.58507
-0.58616
-0.58603
-0.63271
-0.68013
-0.73582
-0.79711
-0.84566
-0.86325
-0.89145
-0.90444
-0.90472
-0.90579
-0.90108
-0.91474
-0.93054
-0.95365
-0.94769
-0.93975
-0.93565
-0.92843
-0.89391
-0.83663
-0.67402
-0.40113
-0.07330
0.24956
0.54522
0.80095
1.00573
1.09443
1.03744
0.77937
0.34743
-0.18985
-0.64097
-0.87713
-0.91927
-0.89173
-0.88483
-0.92058
-0.99302
-1.05777
-1.07740
-1.08064
-1.07877
-1.05884
-1.06525
-1.07707
-1.11209
-1.13051
-1.12940
-1.11762
-1.10713
-1.10734
-1.09978
-1.10389
-1.11854
-1.13215
-1.14671
-1.13378
-1.12322
-1.10296
-1.11867
-1.12601
-1.14022
-1.15736
-1.18181
-1.18686
-1.18887
-1.19480
-1.19488
-1.20255
-1.23476
-1.25074
-1.28171
-1.30427
-1.31834
-1.32345
-1.32481
-1.34425
-1.37314
-1.38387
-1.40414
-1.42179
-1.43088
-1.43580
-1.42666
-1.42507
-1.42403
-1.41445
-1.39379
-1.37329
-1.34682
-1.32435
-1.27751
-1.23687
-1.19076
-1.14666
-1.10616
-1.07502
-1.04133
-1.00375
-0.96547
-0.93078
-0.90400
-0.88383
-0.85550
-0.87152
-0.87638
-0.86445
-0.86109
-0.85538
-0.84803
-0.86100
-0.85783
-0.84887
-0.85549
-0.85553
-0.84972
-0.83890
-0.82329
-0.80518
-0.79912
-0.81298
-0.83677
-0.84220
-0.83477
-0.82611
-0.81965
-0.81631
-0.79661
-0.80313
-0.80283
-0.79981
-0.79206
-0.77787
-0.75384
-0.74436
-0.72491
-0.69830
-0.68239
-0.66661
-0.64817
-0.64256
-0.61007
-0.56657
-0.51202
-0.47813
-0.47129
-0.48649
-0.51704
-0.52264
-0.51247
-0.49938
-0.49067
-0.50462
-0.55605
-0.60055
-0.64261
-0.66181
-0.68489
-0.69812
-0.71627
-0.73765
-0.75002
-0.76687
-0.77034
-0.76582
-0.76262
-0.75533
-0.74627
-0.73410
-0.72041
-0.72157
-0.72657
-0.66957
-0.54238
-0.30775
0.01525
0.36225
0.66885
0.94345
1.15293
1.27629
1.24554
1.05645
0.69890
0.18471
-0.30082
-0.59365
-0.72843
-0.73376
-0.71849
-0.73554
-0.76697
-0.80195
-0.82098
-0.81609
-0.82743
-0.83986
-0.84917
-0.84592
-0.83869
-0.82017
-0.81828
-0.83397
-0.83602
-0.84487
-0.85229
-0.84132
-0.85217
-0.84864
-0.84179
-0.84068
-0.86126
-0.85303
-0.86491
-0.87216
-0.85976
-0.85210
-0.86479
-0.87868
-0.90190
-0.91094
-0.93876
-0.95117
-0.95608
-0.96613
-0.96881
-0.97000
-0.97498
-0.99770
-1.02163
-1.02445
-1.00732
-1.00139
-0.99507
-0.98110
-0.96350
-0.94762
-0.93258
-0.90586
-0.86935
-0.82342
-0.78245
-0.73478
-0.70117
-0.68662
-0.66908
-0.66036
-0.64290
-0.62881
-0.61251
-0.59607
-0.58784
-0.59168
-0.59112
-0.60309
-0.60317
-0.58602
-0.57845
-0.57473
-0.57545
-0.57019
-0.56445
-0.57891
-0.57696
-0.57722
-0.57888
-0.57261
-0.55223
-0.54398
-0.53869
-0.54584
-0.55138
-0.55461
-0.54910
-0.54986
-0.53679
-0.52028
-0.51253
-0.51978
-0.51108
-0.50757
-0.49703
-0.46536
-0.42579
-0.39272
-0.37495
-0.36571
-0.35169
-0.32077
-0.27512
-0.22347
-0.19851
-0.19271
-0.21402
-0.22782
-0.24645
-0.23885
-0.22212
-0.22055
-0.23992
-0.28318
-0.33106
-0.37600
-0.40069
-0.42031
-0.43444
-0.43685
-0.44477
-0.45026
-0.45485
-0.45102
-0.45043
-0.45989
-0.46594
-0.45387
-0.44393
-0.43890
-0.42814
-0.41125
-0.37898
-0.30323
-0.14065
0.11703
0.43367
0.73858
1.01879
1.27344
1.47100
1.57474
1.53711
1.37039
1.07663
0.63026
0.17761
-0.15687
-0.32811
-0.36741
-0.38225
-0.38982
-0.42644
-0.49846
-0.52831
-0.51184
-0.52190
-0.51612
-0.52605
-0.54811
-0.55701
-0.55034
-0.52998
-0.51011
-0.52469
-0.52953
-0.53002
-0.53668
-0.53830
-0.52938
-0.52009
-0.53488
-0.52943
-0.54214
-0.54759
-0.55705
-0.56672
-0.56405
-0.56360
-0.56112
-0.56575
-0.57005
-0.57998
-0.59901
-0.62832
-0.64480
-0.65493
-0.66998
-0.66775
-0.67117
-0.68945
-0.70412
-0.72711
-0.74687
-0.75964
-0.75791
-0.73951
-0.72965
-0.71531
-0.69111
-0.68137
-0.66778
-0.62967
-0.58726
-0.54422
-0.50784
-0.47269
-0.44041
-0.41196
-0.39814
-0.37552
-0.33827
-0.31634
-0.28305
-0.27122
-0.27365
-0.26737
-0.28988
-0.27320
-0.25692
-0.22741
-0.19352
-0.13918
-0.08372
-0.02595
0.03795
0.12146
0.22784
0.36250
0.52305
0.66001
0.70913
0.57383
0.21610
-0.32821
-0.87719
-1.33006
-1.61760
-1.79292
-1.92508
-2.04120
-2.14639
-2.18996
-2.17072
-2.07031
-1.95231
-1.81786
-1.65739
-1.51419
-1.40784
-1.32164
-1.21772
-1.06331
-0.85581
-0.69003
-0.57618
-0.52824
-0.48318
-0.37987
-0.21442
0.03050
0.22582
0.31707
0.32137
0.28683
0.24886
0.25070
0.26012
0.28015
0.30299
0.32618
0.35018
0.37136
0.38825
0.40940
0.41012
0.42527
0.44300
0.47704
0.52077
0.55068
0.58005
0.60048
0.62612
0.65163
0.67771
0.70842
0.74603
0.80130
0.82995
0.85264
0.85735
0.86071
0.86442
0.87027
0.87799
0.85462
0.82884
0.81321
0.76782
0.72619
0.68559
0.63185
0.59969
0.54111
0.48773
0.43720
0.38443
0.32361
0.26363
0.21744
0.18017
0.14930
0.12786
0.08946
0.06614
0.05253
0.02159
0.00315
-0.01880
-0.02273
-0.03352
-0.03666
-0.03035
-0.03767
-0.04270
-0.05540
-0.05579
-0.04597
-0.03739
-0.02954
-0.03428
-0.04072
-0.04412
-0.04454
-0.05224
-0.04699
-0.04716
-0.03612
-0.03225
-0.03078
-0.04141
-0.06029
-0.07135
-0.06985
-0.07970
-0.06474
-0.05297
-0.04785
-0.05228
-0.07745
-0.08499
-0.07600
-0.07241
-0.06786
-0.05957
-0.06026
-0.06889
-0.09616
-0.09604
-0.10484
-0.08759
-0.07449
-0.06911
-0.06318
-0.07527
-0.08306
-0.08630
-0.07936
-0.09300
-0.08773
-0.07435
-0.05379
-0.05426
-0.06105
-0.07158
-0.07482
-0.07668
-0.06390
-0.06352
-0.05534
-0.05543
-0.05240
-0.05883
-0.05552
-0.06770
-0.05417
-0.04670
-0.03849
-0.01682
-0.00829
-0.00013
0.01905
0.04508
0.08179
0.09731
0.11999
0.14498
0.17603
0.21789
0.25433
0.27057
0.25706
0.22784
0.21352
0.22862
0.22599
0.23342
0.21047
0.15598
0.10772
0.07122
0.05204
0.04202
0.01754
-0.00061
-0.02505
-0.03636
-0.05253
-0.04260
-0.03296
-0.01135
0.00029
-0.00391
-0.00700
-0.01090
-0.00111
0.06534
0.22991
0.49187
0.80249
1.09653
1.35518
1.60963
1.81217
1.90432
1.86076
1.67220
1.33091
0.86528
0.45374
0.17249
0.03109
0.00207
-0.01009
-0.03163
-0.07635
-0.12062
-0.13984
-0.14655
-0.15760
-0.16480
-0.16855
-0.16065
-0.15815
-0.15791
-0.16285
-0.17892
-0.18222
-0.17641
-0.18772
-0.18619
-0.18938
-0.17636
-0.17890
-0.18909
-0.18796
-0.19680
-0.20410
-0.21695
-0.21683
-0.22005
-0.22980
-0.23237
-0.25349
-0.27053
-0.28736
-0.30589
-0.32367
-0.33020
-0.34537
-0.35494
-0.37773
-0.42136
-0.44917
-0.47936
-0.48823
-0.50482
-0.50225
-0.50152
-0.50294
-0.49713
-0.49816
-0.49593
-0.47844
-0.45567
-0.41542
-0.36342
-0.32413
-0.29009
-0.24404
-0.20435
-0.15642
-0.10258
-0.06281
-0.01577
0.01038
0.02602
0.06188
0.06615
0.06361
0.07789
0.08171
0.10184
0.11689
0.12076
0.12128
0.10278
0.09675
0.11165
0.12481
0.12431
0.13755
0.14692
0.13386
0.12163
0.12633
0.12090
0.11279
0.13783
0.13813
0.13749
0.14306
0.13895
0.13630
0.14585
0.17112
0.19898
0.23473
0.26501
0.27758
0.30127
0.30238
0.32364
0.35798
0.40850
0.46662
0.50524
0.47778
0.44298
0.41973
0.41146
0.42373
0.43965
0.42197
0.40158
0.36240
0.32145
0.28054
0.24775
0.22721
0.19053
0.19035
0.18169
0.17727
0.17762
0.17472
0.16420
0.17397
0.18542
0.19403
0.19977
0.21541
0.24394
0.26997
0.34474
0.49504
0.75053
1.04101
1.31452
1.53751
1.75369
1.93534
2.02296
2.01237
1.89681
1.66459
1.28804
0.86147
0.51303
0.27706
0.17073
0.13582
0.12678
0.12207
0.10076
0.09600
0.09038
0.07911
0.08508
0.08002
0.06081
0.05117
0.06126
0.05332
0.07370
0.07501
0.07394
0.05969
0.05153
0.05178
0.04542
0.05029
0.06951
0.06675
0.06072
0.04290
0.02906
0.01438
0.00977
0.01695
0.01184
0.01241
-0.00169
-0.01299
-0.04062
-0.06684
-0.08988
-0.09868
-0.10001
-0.10021
-0.10647
-0.12492
-0.14945
-0.16225
-0.17195
-0.15922
-0.14961
-0.11294
-0.09793
-0.08184
-0.05867
-0.03926
-0.00603
0.03698
0.07782
0.11451
0.16311
0.19927
0.21603
0.22530
0.23767
0.26505
0.28452
0.28820
0.29847
0.31255
0.31570
0.30650
0.28492
0.27948
0.28817
0.29977
0.31171
0.32062
0.31586
0.31541
0.30848
0.29295
0.29023
0.29736
0.29909
0.31880
0.31837
0.31091
0.30207
0.29074
0.29446
0.29712
0.31110
0.32853
0.33020
0.35193
0.37461
0.38036
0.40438
0.43367
0.45924
0.48557
0.52543
0.57062
0.61418
0.65103
0.63867
0.62807
0.60092
0.59456
0.60913
0.61871
0.60886
0.56527
0.49893
0.45078
0.42117
0.39950
0.38539
0.37294
0.33932
0.32134
0.29603
0.28686
0.30538
0.32620
0.32538
0.34463
0.35150
0.34938
0.33138
0.31985
0.36550
0.48660
0.67470
0.94819
1.22912
1.48162
1.70656
1.90790
2.03628
2.07770
2.01932
1.84508
1.52637
1.11299
0.74885
0.50400
0.36603
0.33013
0.33309
0.31868
0.27988
0.22920
0.19643
0.18282
0.17561
0.17704
0.17785
0.18743
0.19407
0.18990
0.18110
0.16631
0.15731
0.16495
0.16974
0.17762
0.17899
0.18113
0.17023
0.16498
0.15699
0.15194
0.14590
0.13127
0.15541
0.15364
0.14029
0.12937
0.10300
0.09678
0.07566
0.05715
0.04443
0.03370
0.01824
-0.00174
-0.02647
-0.04829
-0.07049
-0.08694
-0.09002
-0.07411
-0.07677
-0.08425
-0.09729
-0.08532
-0.07351
-0.04816
-0.00801
0.03021
0.06605
0.09535
0.12359
0.15084
0.18174
0.21293
0.25747
0.28236
0.31270
0.32703
0.31498
0.33327
0.32344
0.32407
0.33868
0.36062
0.37282
0.37570
0.36589
0.35904
0.35417
0.35353
0.35711
0.34988
0.36209
0.36114
0.35824
0.36979
0.35801
0.34035
0.33193
0.34429
0.35803
0.36952
0.37428
0.37126
0.35400
0.35136
0.35606
0.36357
0.36848
0.39751
0.44242
0.45268
0.47228
0.48601
0.49623
0.51777
0.56927
0.62809
0.68134
0.69411
0.67637
0.62794
0.59440
0.59367
0.60352
0.60839
0.60179
0.56798
0.52793
0.47069
0.41734
0.37750
0.37045
0.36561
0.34556
0.33528
0.32220
0.31446
0.29762
0.30093
0.31003
0.32088
0.32403
0.33084
0.34398
0.33533
0.34349
0.39359
0.52206
0.73773
0.99642
1.26821
1.50390
1.71534
1.88947
1.98935
2.00574
1.95613
1.82795
1.56950
1.20520
0.84510
0.57193
0.40406
0.34106
0.32191
0.31761
0.27868
0.23429
0.18608
0.17141
0.16056
0.14807
0.15225
0.16020
0.16152
0.15356
0.15001
0.13860
0.11636
0.11311
0.11305
0.11977
0.13105
0.13758
0.13941
0.12930
0.10780
0.10018
0.09442
0.08751
0.08915
0.09274
0.09430
0.07863
0.06077
0.02526
0.01882
0.00679
-0.00458
-0.01504
-0.01943
-0.03560
-0.06645
-0.08579
-0.11626
-0.11865
-0.12527
-0.12497
-0.10686
-0.10014
-0.10097
-0.08333
-0.08362
-0.07418
-0.03860
0.00371
0.04145
0.07704
0.10770
0.12841
0.15006
0.16182
0.18999
0.21676
0.25174
0.27359
0.28280
0.28510
0.27984
0.28036
0.28019
0.28918
0.29339
0.30711
0.30086
0.30508
0.29672
0.28255
0.27389
0.27951
0.29608
0.30334
0.31269
0.31077
0.30335
0.28967
0.28485
0.27825
0.28299
0.28786
0.29069
0.28771
0.28728
0.28022
0.26721
0.26951
0.27134
0.28914
0.32807
0.35548
0.38228
0.39956
0.41166
0.41684
0.43215
0.47972
0.52446
0.58844
0.61589
0.61462
0.56513
0.53562
0.51840
0.53591
0.54423
0.54387
0.51365
0.46310
0.41156
0.36459
0.32881
0.31804
0.30401
0.29104
0.26776
0.24817
0.22353
0.21580
0.22231
0.23440
0.24666
0.25079
0.24982
0.23376
0.23369
0.23938
0.28355
0.40192
0.61768
0.87943
1.14452
1.37235
1.58586
1.77569
1.90871
1.96151
1.90648
1.79077
1.55796
1.20596
0.82562
0.52799
0.33235
0.23358
0.21950
0.20421
0.17796
0.13168
0.06767
0.04830
0.04006
0.04111
0.03313
0.03149
0.03685
0.02947
0.02359
0.01781
0.01318
0.00399
-0.00288
-0.00177
-0.00426
-0.00330
0.00430
-0.00745
-0.01002
-0.01701
-0.03198
-0.04124
-0.04330
-0.03796
-0.04521
-0.05357
-0.06537
-0.08222
-0.10934
-0.11988
-0.13285
-0.14919
-0.15498
-0.17285
-0.18496
-0.20761
-0.22490
-0.24749
-0.24834
-0.26260
-0.26287
-0.25862
-0.26957
-0.26394
-0.26555
-0.26303
-0.23209
-0.19945
-0.16310
-0.13247
-0.10500
-0.07924
-0.05371
-0.02688
-0.00346
0.03277
0.05478
0.08927
0.10563
0.11130
0.10658
0.09463
0.09332
0.09114
0.10592
0.11397
0.10720
0.09227
0.09602
0.09094
0.09117
0.08864
0.09534
0.10159
0.09842
0.10226
0.08665
0.07442
0.06688
0.06712
0.07468
0.07952
0.07968
0.07494
0.06833
0.05587
0.04686
0.05730
0.07041
0.08614
0.10830
0.13079
0.15528
0.15891
0.18025
0.17963
0.20470
0.24436
0.29835
0.34519
0.37266
0.34998
0.29925
0.26443
0.26302
0.26792
0.28003
0.27661
0.24277
0.18734
0.12091
0.07847
0.04202
0.02130
0.01527
0.00368
-0.01305
-0.02305
-0.04238
-0.05529
-0.05598
-0.07409
-0.05733
-0.04920
-0.03421
-0.03734
-0.04983
-0.03478
0.02961
0.17031
0.40672
0.69575
0.97785
1.22382
1.44291
1.60113
1.67107
1.60977
1.46046
1.17961
0.78332
0.39419
0.11103
-0.05165
-0.11398
-0.11366
-0.13135
-0.17295
-0.20783
-0.24141
-0.25166
-0.25028
-0.26600
-0.27763
-0.29136
-0.30071
-0.29739
-0.29138
-0.30216
-0.30650
-0.32501
-0.32203
-0.32919
-0.33947
-0.32294
-0.32694
-0.33095
-0.33622
-0.34466
-0.36671
-0.38409
-0.38172
-0.38467
-0.38702
-0.40199
-0.41930
-0.42646
-0.45353
-0.47655
-0.48547
-0.50134
-0.51340
-0.50829
-0.52354
-0.53870
-0.56472
-0.58202
-0.59337
-0.59760
-0.59520
-0.59087
-0.57993
-0.57303
-0.57015
-0.56154
-0.54289
-0.50891
-0.47002
-0.44347
-0.41129
-0.38240
-0.35932
-0.32844
-0.31609
-0.30415
-0.27247
-0.25695
-0.23674
-0.22655
-0.22408
-0.23326
-0.23284
-0.22991
-0.22245
-0.20900
-0.20049
-0.19087
-0.17384
-0.15570
-0.12009
-0.08665
-0.02391
0.05210
0.15140
0.24873
0.35528
0.48660
0.62121
0.70525
0.62338
0.29822
-0.28508
-0.95091
-1.51182
-1.87501
-2.09213
-2.25260
-2.36916
-2.41976
-2.40163
-2.34973
-2.26031
-2.12929
-1.98861
-1.82312
-1.69660
-1.57659
-1.47262
-1.35093
-1.21371
-1.08510
-0.95223
-0.85985
-0.79294
-0.72902
-0.65190
-0.51342
-0.32213
-0.11620
0.05125
0.15282
0.16917
0.14798
0.13894
0.14346
0.16475
0.19070
0.21763
0.23130
0.24082
0.25013
0.28018
0.31158
0.34146
0.37581
0.39447
0.41764
0.42226
0.44101
0.47013
0.50472
0.53774
0.57246
0.61654
0.64346
0.65685
0.67899
0.68321
0.69616
0.72081
0.73714
0.74391
0.72119
0.69460
0.65889
0.61570
0.57584
0.53261
0.50043
0.45777
0.39488
0.32304
0.27142
0.21827
0.15775
0.10969
0.06772
0.03776
0.01136
-0.03500
-0.07610
-0.11264
-0.14250
-0.16757
-0.18462
-0.20488
-0.20080
-0.22113
-0.23749
-0.25508
-0.26575
-0.26583
-0.25926
-0.26985
-0.26212
-0.25530
-0.26147
-0.27651
-0.27915
-0.28261
-0.27877
-0.27246
-0.26313
-0.26491
-0.25432
-0.28249
-0.29290
-0.28708
-0.30131
-0.29159
-0.29195
-0.30529
-0.31336
-0.32423
-0.32236
-0.33218
-0.34132
-0.35068
-0.34095
-0.33127
-0.33213
-0.33067
-0.33409
-0.34507
-0.34204
-0.34031
-0.34424
-0.32958
-0.33706
-0.36051
-0.35058
-0.35051
-0.36154
-0.35835
-0.35118
-0.34645
-0.35019
-0.35217
-0.36019
-0.37230
-0.37394
-0.37653
-0.37544
-0.36796
-0.35856
-0.36352
-0.37016
-0.38450
-0.38183
-0.38070
-0.37402
-0.34967
-0.32530
-0.30413
-0.27739
-0.25914
-0.23884
-0.22785
-0.21635
-0.18625
-0.14843
-0.10206
-0.07357
-0.06025
-0.07823
-0.11270
-0.13885
-0.13040
-0.10148
-0.09079
-0.12565
-0.17053
-0.22541
-0.27463
-0.30627
-0.34016
-0.36021
-0.37008
-0.38506
-0.40459
-0.42603
-0.43938
-0.43539
-0.43395
-0.42151
-0.41526
-0.41699
-0.41044
-0.40666
-0.39528
-0.35693
-0.23507
-0.02225
0.26175
0.55764
0.82259
1.05085
1.25051
1.37683
1.37968
1.27948
1.05150
0.69836
0.28315
-0.06200
-0.25574
-0.37977
-0.42209
-0.43403
-0.48397
-0.52291
-0.55248
-0.57447
-0.59145
-0.60205
-0.61086
-0.63062
-0.62691
-0.62086
-0.61250
-0.63191
-0.64062
-0.65725
-0.66055
-0.65468
-0.65550
-0.64471
-0.65447
-0.66695
-0.64806
-0.66119
-0.66997
-0.68691
-0.69672
-0.69415
-0.68954
-0.69414
-0.71587
-0.74418
-0.76683
-0.79140
-0.81969
-0.83556
-0.85846
-0.86898
-0.90154
-0.92203
-0.95542
-0.97455
-0.99285
-1.00869
-1.00095
-1.00389
-1.00127
-1.01067
-1.01826
-1.01700
-0.99319
-0.95994
-0.91343
-0.87914
-0.82749
-0.78452
-0.74654
-0.72340
-0.67948
-0.64253
-0.60214
-0.53574
-0.49648
-0.47434
-0.47058
-0.46892
-0.45702
-0.45828
-0.43454
-0.43263
-0.42016
-0.40943
-0.40479
-0.42324
-0.43113
-0.43364
-0.42499
-0.40101
-0.39403
-0.38962
-0.38395
-0.38757
-0.37583
-0.35213
-0.33888
-0.31312
-0.29069
-0.28012
-0.25493
-0.21904
-0.18443
-0.09713
-0.00704
0.16826
0.36271
0.53323
0.69225
0.85349
0.99927
1.12563
1.25251
1.38072
1.45049
1.37518
1.09344
0.51621
-0.24793
-0.93662
-1.43178
-1.63814
-1.61647
-1.48284
-1.31839
-1.19573
-1.08632
-0.97953
-0.85670
-0.71887
-0.59000
-0.53360
-0.52950
-0.54502
-0.54626
-0.53988
-0.53153
-0.51978
-0.51832
-0.51915
-0.51347
-0.50329
-0.50017
-0.51531
-0.51468
-0.51271
-0.50788
-0.50542
-0.51116
-0.50772
-0.50661
-0.50533
-0.51766
-0.51489
-0.50613
-0.50060
-0.48917
-0.48495
-0.49038
-0.49050
-0.49988
-0.50046
-0.49278
-0.47104
-0.44895
-0.42053
-0.39514
-0.38549
-0.37531
-0.35976
-0.34163
-0.31726
-0.27239
-0.23492
-0.20934
-0.19199
-0.19256
-0.19274
-0.20137
-0.20785
-0.21474
-0.20457
-0.20545
-0.21134
-0.23136
-0.24694
-0.28074
-0.30961
-0.32083
-0.33124
-0.33472
-0.33633
-0.34461
-0.35166
-0.36364
-0.36873
-0.35637
-0.35321
-0.34632
-0.34717
-0.34703
-0.35676
-0.36209
-0.36698
-0.37570
-0.37222
-0.36820
-0.35707
-0.34918
-0.32902
-0.32953
-0.32123
-0.33671
-0.33058
-0.32819
-0.32235
-0.32054
-0.31451
-0.30837
-0.31796
-0.33145
-0.34497
-0.33574
-0.34342
-0.31998
-0.31819
-0.31266
-0.32441
-0.34395
-0.34826
-0.33695
-0.32268
-0.30692
-0.30644
-0.31387
-0.32349
-0.33064
-0.33044
-0.32476
-0.31456
-0.31377
-0.30109
-0.30089
-0.31574
-0.32892
-0.33549
-0.32626
-0.31864
-0.28915
-0.28248
-0.27781
-0.26210
-0.25763
-0.24031
-0.21540
-0.19761
-0.18029
-0.15415
-0.14389
-0.10059
-0.05997
-0.01827
0.02494
0.01142
-0.01697
-0.01486
-0.00263
-0.00022
-0.00060
-0.03286
-0.08704
-0.14905
-0.20514
-0.22988
-0.23546
-0.26114
-0.28529
-0.31561
-0.33359
-0.33573
-0.31819
-0.30792
-0.28998
-0.28702
-0.28951
-0.29661
-0.30555
-0.30967
-0.26875
-0.17205
0.02736
0.30819
0.60725
0.89184
1.12677
1.34142
1.50760
1.57305
1.52354
1.33910
0.97599
0.50441
0.07425
-0.17063
-0.27387
-0.29383
-0.29159
-0.32417
-0.38129
-0.43414
-0.48146
-0.49411
-0.48150
-0.48152
-0.49295
-0.50560
-0.50181
-0.50395
-0.51285
-0.52368
-0.50706
-0.50027
-0.48878
-0.49226
-0.49898
-0.52096
-0.53382
-0.54724
-0.55156
-0.55597
-0.54431
-0.54226
-0.54418
-0.52949
-0.54838
-0.57248
-0.61068
-0.64838
-0.65638
-0.66437
-0.65349
-0.65725
-0.69093
-0.71385
-0.75365
-0.77894
-0.79876
-0.80808
-0.82321
-0.81660
-0.82149
-0.84512
-0.85693
-0.85997
-0.86688
-0.83733
-0.82504
-0.80296
-0.78227
-0.75045
-0.72787
-0.68986
-0.66596
-0.61668
-0.56917
-0.51065
-0.47767
-0.44813
-0.42291
-0.40348
-0.37584
-0.35274
-0.33209
-0.31570
-0.30347
-0.31478
-0.31049
-0.31976
-0.31976
-0.33031
-0.32588
-0.32989
-0.33433
-0.32190
-0.32834
-0.32319
-0.32021
-0.30776
-0.30574
-0.30495
-0.29002
-0.29134
-0.30641
-0.31056
-0.32332
-0.32600
-0.32289
-0.32829
-0.31637
-0.30984
-0.28908
-0.29598
-0.30360
-0.29677
-0.28258
-0.25538
-0.22851
-0.19592
-0.18594
-0.17835
-0.17129
-0.15113
-0.10909
-0.05093
-0.00409
0.02319
0.00344
-0.02922
-0.04957
-0.06006
-0.05336
-0.05669
-0.07253
-0.09577
-0.13267
-0.17588
-0.21049
-0.25969
-0.28625
-0.30296
-0.31639
-0.33331
-0.34363
-0.33094
-0.33456
-0.34710
-0.35080
-0.35413
-0.33813
-0.32783
-0.30182
-0.28916
-0.24915
-0.14624
0.07194
0.37010
0.69075
0.97575
1.21936
1.41740
1.51791
1.50208
1.33683
0.98067
0.49450
0.03290
-0.23873
-0.34262
-0.33813
-0.32931
-0.35450
-0.42223
-0.47494
-0.49562
-0.48877
-0.48185
-0.48617
-0.49135
-0.49890
-0.49634
-0.50332
-0.49756
-0.49766
-0.49387
-0.49751
-0.50371
-0.51468
-0.53355
-0.53980
-0.54024
-0.53937
-0.53065
-0.51802
-0.52084
-0.53308
-0.54931
-0.56315
-0.56888
-0.57575
-0.58485
-0.58836
-0.60280
-0.62715
-0.65370
-0.68612
-0.70771
-0.71556
-0.72337
-0.72864
-0.72692
-0.73472
-0.74289
-0.75579
-0.74434
-0.70089
-0.64310
-0.56497
-0.49779
-0.44445
-0.40152
-0.34896
-0.29779
-0.26574
-0.21661
-0.19618
-0.17734
-0.18514
-0.22782
-0.27545
-0.31037
-0.32897
-0.34784
-0.35695
-0.37450
-0.38758
-0.39822
-0.41941
-0.42814
-0.41757
-0.42000
-0.42369
-0.41074
-0.41276
-0.41403
-0.40374
-0.40558
-0.40860
-0.41437
-0.41226
-0.40780
-0.37580
-0.32977
-0.23185
-0.05132
0.20757
0.47436
0.69678
0.87602
1.04524
1.18789
1.27494
1.31324
1.22795
0.93985
0.44841
-0.04764
-0.37863
-0.46583
-0.43849
-0.39329
-0.38160
-0.42585
-0.49724
-0.52796
-0.52722
-0.52036
-0.50729
-0.51470
-0.52107
-0.52940
-0.53040
-0.53020
-0.53697
-0.53483
-0.53062
-0.52537
-0.54665
-0.55155
-0.56911
-0.57276
-0.57194
-0.57220
-0.56516
-0.57068
-0.57511
-0.58309
-0.60752
-0.63588
-0.63175
-0.64111
-0.63482
-0.63610
-0.65287
-0.67705
-0.69436
-0.72442
-0.73668
-0.75130
-0.75116
-0.74362
-0.75569
-0.75361
-0.76764
-0.77602
-0.76972
-0.75695
-0.73052
-0.69664
-0.67327
-0.63272
-0.61460
-0.59222
-0.55946
-0.53084
-0.50337
-0.45372
-0.42918
-0.41010
-0.39090
-0.38932
-0.38274
-0.38430
-0.37352
-0.36093
-0.36701
-0.35784
-0.36811
-0.36971
-0.39206
-0.39679
-0.37213
-0.37514
-0.35268
-0.35722
-0.36997
-0.37271
-0.37888
-0.37715
-0.38874
-0.38603
-0.37286
-0.35916
-0.36226
-0.36540
-0.36539
-0.37674
-0.37248
-0.37526
-0.36988
-0.35838
-0.36799
-0.35923
-0.36734
-0.36461
-0.35978
-0.34135
-0.31601
-0.30104
-0.26613
-0.20741
-0.15491
-0.08540
0.01195
0.11026
0.25083
0.40089
0.55277
0.62312
0.54774
0.25479
-0.26092
-0.91187
-1.48934
-1.89082
-2.17619
-2.41027
-2.58020
-2.64695
-2.64208
-2.57183
-2.43810
-2.27671
-2.07827
-1.87354
-1.70252
-1.60841
-1.53442
-1.42136
-1.27357
-1.14482
-1.05186
-0.98909
-0.93263
-0.82907
-0.69070
-0.49336
-0.28092
-0.11921
-0.00622
0.01606
0.00998
0.00131
-0.00196
0.01128
0.03525
0.06219
0.08638
0.12136
0.14318
0.16551
0.17785
0.17965
0.20134
0.22416
0.24354
0.29768
0.33460
0.35422
0.38151
0.41387
0.44506
0.47856
0.52726
0.57558
0.62058
0.65683
0.68104
0.69428
0.69687
0.69991
0.70239
0.71019
0.72095
0.69096
0.65788
0.62186
0.57944
0.52699
0.48029
0.44084
0.40400
0.36207
0.30006
0.23598
0.18329
0.14026
0.09232
0.05348
0.01423
-0.02090
-0.05370
-0.08731
-0.12477
-0.15368
-0.18380
-0.18751
-0.19199
-0.19956
-0.19548
-0.20712
-0.22609
-0.22434
-0.23517
-0.23423
-0.22531
-0.22270
-0.21980
-0.22545
-0.22736
-0.22833
-0.24098
-0.24802
-0.24446
-0.23890
-0.23266
-0.23002
-0.23551
-0.25351
-0.25888
-0.26845
-0.26993
-0.27091
-0.25086
-0.26145
-0.26337
-0.28555
-0.29334
-0.29785
-0.30536
-0.30569
-0.30029
-0.29429
-0.30056
-0.30554
-0.31385
-0.31287
-0.32446
-0.32122
-0.31988
-0.31932
-0.30747
-0.29369
-0.31181
-0.32198
-0.32176
-0.32578
-0.31645
-0.31778
-0.31142
-0.31363
-0.31179
-0.32477
-0.33232
-0.33020
-0.34022
-0.30596
-0.31480
-0.31788
-0.31806
-0.32596
-0.32386
-0.31456
-0.31384
-0.29129
-0.27585
-0.25708
-0.23652
-0.22254
-0.20824
-0.19075
-0.16189
-0.15269
-0.11900
-0.08709
-0.04414
-0.00128
0.01635
0.00380
-0.02650
-0.06215
-0.04938
-0.03547
-0.03023
-0.03971
-0.08334
-0.13849
-0.18466
-0.21118
-0.23265
-0.24436
-0.26278
-0.28575
-0.31940
-0.34136
-0.35113
-0.35587
-0.33686
-0.32131
-0.31304
-0.31052
-0.31602
-0.31057
-0.27959
-0.15210
0.06923
0.37410
0.67461
0.94596
1.18161
1.36819
1.46996
1.46386
1.32944
1.03061
0.58025
0.14249
-0.14560
-0.29019
-0.32974
-0.34301
-0.37801
-0.42225
-0.45796
-0.49199
-0.49273
-0.49864
-0.50984
-0.52209
-0.52727
-0.52092
-0.52581
-0.52083
-0.52689
-0.53579
-0.54259
-0.56599
-0.56609
-0.55356
-0.54606
-0.54175
-0.54796
-0.56165
-0.57474
-0.58300
-0.58211
-0.58350
-0.59825
-0.60979
-0.61282
-0.62988
-0.66419
-0.69829
-0.72682
-0.74062
-0.75644
-0.77480
-0.79082
-0.83206
-0.84403
-0.86475
-0.89314
-0.91919
-0.92789
-0.91740
-0.90145
-0.90043
-0.90352
-0.88825
-0.87733
-0.84968
-0.81832
-0.76627
-0.71331
-0.66608
-0.61230
-0.56553
-0.52695
-0.49477
-0.45389
-0.41629
-0.37170
-0.33738
-0.32838
-0.30462
-0.30274
-0.31647
-0.32143
-0.31478
-0.29634
-0.28528
-0.28217
-0.29880
-0.27903
-0.28794
-0.28918
-0.28641
-0.28096
-0.26368
-0.26354
-0.26603
-0.27683
-0.27838
-0.29331
-0.29725
-0.28399
-0.27565
-0.26914
-0.27381
-0.25442
-0.24296
-0.22453
-0.20102
-0.17238
-0.13763
-0.11133
-0.11069
-0.09898
-0.07005
-0.03839
-0.00094
0.02563
0.03333
-0.00567
-0.00997
-0.02013
-0.02624
-0.01096
-0.03830
-0.07013
-0.09903
-0.14027
-0.17431
-0.20147
-0.22966
-0.25962
-0.28769
-0.30508
-0.31912
-0.31635
-0.29794
-0.29893
-0.29577
-0.29238
-0.29949
-0.30309
-0.29917
-0.28054
-0.21448
-0.09396
0.11029
0.37670
0.64285
0.87786
1.09889
1.29747
1.43851
1.45902
1.37491
1.17612
0.83476
0.40356
0.04364
-0.18212
-0.28380
-0.28852
-0.29128
-0.33068
-0.38710
-0.43502
-0.46165
-0.45032
-0.43865
-0.42863
-0.43031
-0.44703
-0.45800
-0.47007
-0.47183
-0.46692
-0.46362
-0.46186
-0.46337
-0.46717
-0.46888
-0.49575
-0.49116
-0.50378
-0.49206
-0.48667
-0.48585
-0.48765
-0.50050
-0.51270
-0.53149
-0.54506
-0.55844
-0.55700
-0.56483
-0.58222
-0.61193
-0.62814
-0.64416
-0.66116
-0.67574
-0.67220
-0.67033
-0.67116
-0.67841
-0.68263
-0.68203
-0.67311
-0.65605
-0.64008
-0.60913
-0.57445
-0.53753
-0.49843
-0.48932
-0.47222
-0.43932
-0.41060
-0.38308
-0.33669
-0.31471
-0.31932
-0.30309
-0.31577
-0.31786
-0.30233
-0.29121
-0.27286
-0.26929
-0.27864
-0.28032
-0.29370
-0.29105
-0.29978
-0.29532
-0.28765
-0.28603
-0.28317
-0.27807
-0.29490
-0.30053
-0.30833
-0.29487
-0.29564
-0.29074
-0.29757
-0.29407
-0.29263
-0.30534
-0.31623
-0.31204
-0.30065
-0.28262
-0.26227
-0.24284
-0.21745
-0.19661
-0.17703
-0.15675
-0.13979
-0.10853
-0.06761
-0.01911
0.02285
0.04073
0.02608
-0.00013
-0.02443
-0.02723
-0.00766
-0.01296
-0.03142
-0.06680
-0.12544
-0.16802
-0.20691
-0.21658
-0.23228
-0.24949
-0.28615
-0.29583
-0.31019
-0.32325
-0.32066
-0.30562
-0.28611
-0.28638
-0.27728
-0.27703
-0.27844
-0.26619
-0.21540
-0.08390
0.13697
0.41389
0.69963
0.94554
1.15902
1.33306
1.42859
1.42886
1.33916
1.13696
0.79014
0.38703
0.05177
-0.15500
-0.26734
-0.29076
-0.29710
-0.31875
-0.36523
-0.41818
-0.43916
-0.44922
-0.46644
-0.45554
-0.45038
-0.45296
-0.45687
-0.45638
-0.47237
-0.47843
-0.48273
-0.48075
-0.48412
-0.48214
-0.47464
-0.46631
-0.47600
-0.49124
-0.51243
-0.51236
-0.50799
-0.50743
-0.49954
-0.49730
-0.51679
-0.53159
-0.54536
-0.57242
-0.58600
-0.59254
-0.60228
-0.61736
-0.63103
-0.65576
-0.68634
-0.69546
-0.71538
-0.71984
-0.72270
-0.72707
-0.73061
-0.72807
-0.71282
-0.72024
-0.71092
-0.68998
-0.65317
-0.61791
-0.58106
-0.55275
-0.52095
-0.48216
-0.47102
-0.43382
-0.40409
-0.36402
-0.32714
-0.31174
-0.29397
-0.28676
-0.29454
-0.28997
-0.28812
-0.28160
-0.26959
-0.26034
-0.26093
-0.27044
-0.28345
-0.29170
-0.28586
-0.27679
-0.26956
-0.25730
-0.25463
-0.26809
-0.26329
-0.27019
-0.27355
-0.26766
-0.26574
-0.25711
-0.25998
-0.25985
-0.26105
-0.27403
-0.28996
-0.28708
-0.26486
-0.23975
-0.22481
-0.21430
-0.18615
-0.16911
-0.14685
-0.12700
-0.10757
-0.08577
-0.03918
0.00784
0.06179
0.05646
0.02201
-0.01230
-0.02710
-0.01287
0.00842
0.00172
-0.02960
-0.07367
-0.12002
-0.16666
-0.19524
-0.21031
-0.21769
-0.25183
-0.27190
-0.28674
-0.30595
-0.31746
-0.30535
-0.30112
-0.28826
-0.27232
-0.27476
-0.28795
-0.28011
-0.25980
-0.19174
-0.03495
0.20353
0.49919
0.75885
0.98958
1.19955
1.35919
1.44663
1.42938
1.32936
1.10441
0.74630
0.34985
0.01786
-0.18161
-0.26794
-0.28282
-0.29323
-0.31052
-0.36407
-0.41107
-0.42699
-0.45214
-0.45130
-0.44691
-0.44060
-0.43600
-0.42708
-0.43629
-0.43277
-0.44822
-0.45236
-0.45579
-0.45542
-0.44844
-0.45063
-0.44680
-0.44840
-0.46142
-0.47668
-0.49844
-0.50612
-0.50526
-0.49838
-0.48867
-0.51543
-0.52445
-0.54219
-0.54989
-0.57919
-0.57936
-0.58337
-0.59616
-0.60384
-0.63263
-0.64698
-0.66655
-0.69379
-0.69615
-0.68541
-0.68667
-0.66789
-0.65438
-0.65161
-0.63283
-0.59845
-0.57206
-0.53816
-0.49281
-0.45156
-0.41441
-0.37758
-0.35565
-0.34120
-0.31993
-0.29675
-0.27968
-0.26301
-0.25328
-0.24361
-0.25161
-0.25871
-0.26513
-0.27445
-0.26384
-0.24736
-0.23640
-0.24393
-0.24748
-0.24526
-0.25136
-0.24900
-0.25096
-0.24849
-0.24570
-0.24342
-0.24404
-0.24816
-0.26333
-0.26344
-0.26565
-0.26094
-0.25114
-0.24439
-0.23983
-0.23363
-0.22476
-0.21789
-0.19629
-0.17240
-0.13469
-0.11012
-0.08860
-0.09077
-0.05461
-0.03072
0.01024
0.05015
0.07243
0.05746
0.02784
0.00445
0.00996
-0.00002
0.00206
-0.00555
-0.06311
-0.10984
-0.14576
-0.17009
-0.20016
-0.22660
-0.25648
-0.26784
-0.27344
-0.27487
-0.27100
-0.27057
-0.27501
-0.29205
-0.28954
-0.28076
-0.26384
-0.25196
-0.23892
-0.18147
-0.06548
0.11797
0.37443
0.64514
0.86593
1.07712
1.27628
1.42122
1.47158
1.41320
1.24775
0.95204
0.55266
0.18595
-0.06668
-0.20910
-0.25979
-0.27520
-0.30807
-0.36974
-0.41104
-0.42842
-0.43492
-0.41929
-0.41958
-0.42944
-0.44236
-0.46184
-0.47490
-0.46839
-0.46856
-0.46025
-0.45185
-0.44876
-0.45622
-0.47285
-0.48617
-0.48763
-0.48915
-0.49479
-0.47958
-0.47836
-0.48764
-0.51308
-0.51879
-0.53291
-0.52949
-0.54250
-0.55509
-0.56761
-0.58104
-0.61034
-0.62838
-0.64747
-0.66281
-0.67032
-0.68699
-0.69637
-0.71089
-0.72592
-0.73636
-0.74341
-0.73705
-0.72295
-0.70172
-0.66476
-0.64065
-0.61185
-0.59244
-0.56424
-0.52960
-0.49195
-0.45236
-0.41166
-0.37707
-0.34710
-0.32782
-0.31775
-0.32089
-0.31518
-0.30083
-0.28442
-0.28295
-0.29684
-0.30505
-0.29036
-0.29005
-0.29014
-0.28518
-0.27744
-0.26745
-0.26925
-0.27340
-0.27138
-0.27863
-0.28399
-0.27923
-0.28439
-0.27731
-0.27788
-0.26980
-0.27641
-0.28716
-0.29229
-0.29310
-0.27819
-0.24912
-0.24536
-0.22066
-0.20575
-0.18057
-0.14939
-0.12875
-0.11452
-0.07912
-0.03733
0.00614
0.04543
0.05041
0.01855
-0.02061
-0.02441
-0.01850
0.00178
-0.00747
-0.04107
-0.09344
-0.14578
-0.19142
-0.21204
-0.23064
-0.25051
-0.25974
-0.29359
-0.31409
-0.32322
-0.31535
-0.31436
-0.29644
-0.29423
-0.29781
-0.28205
-0.28118
-0.28397
-0.26027
-0.18895
-0.03571
0.21373
0.50416
0.75840
0.99480
1.20495
1.36176
1.42413
1.36858
1.22140
0.95329
0.56985
0.19870
-0.07804
-0.25146
-0.31173
-0.31987
-0.32748
-0.35423
-0.39554
-0.42944
-0.44835
-0.45736
-0.45979
-0.46159
-0.46642
-0.47090
-0.47184
-0.47535
-0.46912
-0.48666
-0.48687
-0.48991
-0.49958
-0.48647
-0.47994
-0.47024
-0.48353
-0.48680
-0.50159
-0.51339
-0.52206
-0.52918
-0.51494
-0.52655
-0.54162
-0.55162
-0.58268
-0.60230
-0.61699
-0.62319
-0.63422
-0.64043
-0.64747
-0.67663
-0.68878
-0.70834
-0.72428
-0.71802
-0.72398
-0.70983
-0.69087
-0.68009
-0.66927
-0.65598
-0.62963
-0.59693
-0.54679
-0.50960
-0.47698
-0.43118
-0.41109
-0.38738
-0.36324
-0.34276
-0.32935
-0.31225
-0.29589
-0.27889
-0.28174
-0.28913
-0.29847
-0.29645
-0.28733
-0.29810
-0.28929
-0.27033
-0.26668
-0.26987
-0.28778
-0.28948
-0.28585
-0.28535
-0.26754
-0.26563
-0.26879
-0.26854
-0.27254
-0.28367
-0.29193
-0.28926
-0.28949
-0.27731
-0.27415
-0.27077
-0.26648
-0.27470
-0.25621
-0.22169
-0.19473
-0.14826
-0.12132
-0.11866
-0.08920
-0.07108
-0.03765
0.00504
0.04186
0.05200
0.03515
0.00756
-0.01319
-0.01205
-0.00979
-0.02089
-0.04381
-0.08308
-0.11782
-0.16455
-0.19909
-0.22742
-0.25298
-0.28407
-0.29216
-0.30368
-0.30070
-0.30244
-0.30209
-0.30106
-0.30696
-0.31246
-0.30018
-0.28848
-0.27825
-0.22838
-0.11239
0.08166
0.34150
0.60625
0.85411
1.08395
1.29162
1.44159
1.47660
1.40862
1.22552
0.91998
0.50811
0.13471
-0.12633
-0.25211
-0.29428
-0.31029
-0.34595
-0.40400
-0.45079
-0.46367
-0.46873
-0.45955
-0.44747
-0.45024
-0.46672
-0.48252
-0.49735
-0.50804
-0.49846
-0.49101
-0.48862
-0.49304
-0.49978
-0.50439
-0.51228
-0.51625
-0.51867
-0.51138
-0.51246
-0.51598
-0.52168
-0.53081
-0.55183
-0.56455
-0.57900
-0.59035
-0.59140
-0.60688
-0.62348
-0.65472
-0.68005
-0.70457
-0.72309
-0.72460
-0.72830
-0.72088
-0.72831
-0.72881
-0.72706
-0.73241
-0.72109
-0.69763
-0.65313
-0.61852
-0.58412
-0.53782
-0.52007
-0.49034
-0.46571
-0.43224
-0.40436
-0.36721
-0.32738
-0.30230
-0.27578
-0.26747
-0.25851
-0.24193
-0.21804
-0.19487
-0.16510
-0.14930
-0.14400
-0.13291
-0.11754
-0.11826
-0.12395
-0.13860
-0.14171
-0.14888
-0.15245
-0.14371
-0.14823
-0.17319
-0.20843
-0.22930
-0.23941
-0.24557
-0.26155
-0.27334
-0.30095
-0.31331
-0.32038
-0.30865
-0.29435
-0.27843
-0.26662
-0.28502
-0.27318
-0.27952
-0.27755
-0.24652
-0.17072
-0.02345
0.18806
0.43114
0.69595
0.94047
1.19502
1.42464
1.58456
1.59933
1.47971
1.21862
0.77729
0.34128
-0.00163
-0.19648
-0.24617
-0.25572
-0.26308
-0.30497
-0.36399
-0.40056
-0.41593
-0.42067
-0.41761
-0.42181
-0.42144
-0.42550
-0.42732
-0.44677
-0.44927
-0.45325
-0.44378
-0.43748
-0.43894
-0.43089
-0.43990
-0.44956
-0.47579
-0.48557
-0.48505
-0.48274
-0.47521
-0.48380
-0.50572
-0.52716
-0.55146
-0.57419
-0.59610
-0.58756
-0.59070
-0.59481
-0.60902
-0.63710
-0.66527
-0.67432
-0.69525
-0.71199
-0.71580
-0.71445
-0.71308
-0.71026
-0.70801
-0.69170
-0.66322
-0.64485
-0.61635
-0.57286
-0.53628
-0.50469
-0.48060
-0.44442
-0.41529
-0.40050
-0.37559
-0.34269
-0.29606
-0.27494
-0.27221
-0.27186
-0.27860
-0.28973
-0.30348
-0.30414
-0.29341
-0.28450
-0.28285
-0.28347
-0.29497
-0.29988
-0.28718
-0.29247
-0.29516
-0.28106
-0.28142
-0.27610
-0.28589
-0.28898
-0.28583
-0.29251
-0.27766
-0.27720
-0.26252
-0.25782
-0.28745
-0.30701
-0.30707
-0.31091
-0.29553
-0.28909
-0.26754
-0.27958
-0.26405
-0.26313
-0.27166
-0.27633
-0.28123
-0.26162
-0.24056
-0.24173
-0.23991
-0.23021
-0.24662
-0.24914
-0.24105
-0.22963
-0.19586
-0.16115
-0.14618
-0.12172
-0.11138
-0.09769
-0.07625
-0.05654
-0.01855
0.02266
0.04820
0.05292
0.03306
-0.00827
-0.02980
-0.02985
-0.01459
0.00617
-0.00061
-0.03515
-0.07722
-0.12680
-0.16571
-0.18981
-0.19504
-0.19346
-0.20328
-0.22967
-0.25420
-0.26680
-0.26649
-0.25177
-0.24059
-0.21738
-0.21145
-0.20339
-0.20243
-0.15887
-0.02232
0.22917
0.50952
0.81165
1.07746
1.31730
1.51639
1.60849
1.57086
1.40863
1.10013
0.67571
0.26344
-0.01108
-0.15561
-0.20073
-0.21584
-0.24826
-0.29334
-0.35669
-0.39474
-0.39506
-0.40414
-0.40650
-0.41941
-0.43523
-0.43726
-0.44065
-0.43070
-0.42597
-0.43545
-0.44618
-0.45424
-0.46554
-0.47150
-0.46717
-0.46042
-0.45145
-0.45006
-0.45194
-0.46235
-0.47607
-0.48753
-0.51095
-0.51143
-0.50558
-0.50695
-0.51174
-0.53800
-0.55233
-0.57938
-0.60489
-0.62236
-0.62747
-0.63949
-0.65488
-0.67290
-0.69696
-0.70894
-0.71975
-0.72792
-0.73377
-0.72700
-0.71717
-0.71476
-0.70464
-0.70384
-0.69317
-0.66967
-0.63837
-0.59269
-0.54840
-0.49639
-0.48436
-0.44950
-0.41634
-0.40766
-0.37876
-0.33355
-0.28209
-0.25712
-0.24594
-0.24372
-0.24882
-0.26213
-0.24827
-0.23794
-0.22859
-0.22931
-0.23879
-0.24810
-0.24532
-0.25415
-0.24705
-0.22340
-0.21430
-0.20122
-0.19765
-0.20361
-0.22325
-0.24554
-0.24287
-0.24297
-0.23745
-0.23106
-0.22104
-0.21227
-0.22284
-0.22077
-0.21344
-0.19581
-0.17003
-0.14212
-0.10736
-0.09446
-0.08147
-0.08567
-0.06942
-0.04917
-0.01275
0.03519
0.06683
0.08895
0.06013
0.02204
0.01151
0.02868
0.04995
0.06172
0.03227
-0.00893
-0.06381
-0.11633
-0.16824
-0.20699
-0.20680
-0.22058
-0.22313
-0.23068
-0.24714
-0.25707
-0.26397
-0.27398
-0.25638
-0.23243
-0.22818
-0.22197
-0.23806
-0.21157
-0.12314
0.05637
0.34469
0.66338
0.96217
1.22656
1.44906
1.59403
1.63079
1.54673
1.33814
0.93578
0.46019
0.05313
-0.16392
-0.25087
-0.26283
-0.27555
-0.31517
-0.34596
-0.39762
-0.40978
-0.41254
-0.40336
-0.42336
-0.43586
-0.44312
-0.45621
-0.43498
-0.42596
-0.42089
-0.41359
-0.44415
-0.46625
-0.47768
-0.47257
-0.46678
-0.44165
-0.42898
-0.42742
-0.44906
-0.47464
-0.47869
-0.50718
-0.50703
-0.51618
-0.51941
-0.52524
-0.54292
-0.56772
-0.59809
-0.62048
-0.62355
-0.63942
-0.64833
-0.64294
-0.65680
-0.67124
-0.69558
-0.71112
-0.71894
-0.71907
-0.71393
-0.69113
-0.67457
-0.66205
-0.63059
-0.60265
-0.57672
-0.54934
-0.50744
-0.47494
-0.44537
-0.41697
-0.39136
-0.37184
-0.35295
-0.32675
-0.30752
-0.27705
-0.26564
-0.25721
-0.25424
-0.26061
-0.26619
-0.26614
-0.24661
-0.23360
-0.20845
-0.18361
-0.15672
-0.10568
-0.03725
0.03940
0.14006
0.23796
0.36233
0.51031
0.66609
0.76640
0.73371
0.50299
0.04672
-0.56461
-1.14915
-1.59026
-1.89657
-2.12455
-2.30435
-2.40818
-2.44977
-2.42041
-2.33188
-2.21413
-2.05386
-1.87612
-1.71447
-1.59209
-1.50146
-1.39663
-1.24527
-1.05585
-0.89222
-0.80304
-0.76459
-0.71995
-0.61898
-0.46773
-0.27078
-0.07820
0.06371
0.14367
0.16066
0.15174
0.13936
0.14619
0.16885
0.18395
0.21982
0.25292
0.27623
0.28680
0.28924
0.28700
0.29973
0.34758
0.37887
0.41275
0.44835
0.47081
0.47501
0.49117
0.52231
0.54783
0.59265
0.64360
0.67153
0.70198
0.71342
0.73963
0.76193
0.78126
0.79010
0.80639
0.80993
0.79706
0.77329
0.74032
0.69609
0.65451
0.61452
0.57063
0.52716
0.48413
0.42392
0.37772
0.31650
0.27366
0.22323
0.18545
0.14920
0.10432
0.07214
0.02082
-0.02243
-0.04167
-0.06714
-0.08805
-0.10062
-0.10841
-0.12364
-0.14470
-0.15968
-0.16493
-0.16451
-0.16317
-0.16742
-0.16911
-0.17420
-0.16556
-0.16548
-0.17909
-0.17523
-0.17734
-0.17679
-0.16564
-0.17939
-0.17754
-0.17874
-0.19473
-0.20751
-0.20737
-0.19450
-0.18979
-0.18109
-0.18662
-0.20001
-0.19890
-0.20919
-0.21608
-0.21125
-0.21321
-0.21490
-0.20897
-0.22027
-0.23309
-0.23421
-0.24040
-0.22799
-0.22655
-0.21568
-0.20714
-0.22377
-0.23805
-0.24331
-0.24303
-0.23873
-0.22129
-0.21533
-0.21100
-0.21697
-0.22365
-0.22916
-0.23824
-0.23479
-0.22364
-0.23046
-0.22232
-0.21890
-0.22667
-0.22773
-0.22949
-0.22744
-0.22545
-0.20910
-0.18093
-0.16058
-0.15151
-0.12954
-0.10351
-0.08757
-0.06879
-0.05102
-0.02200
0.03246
0.07102
0.10151
0.10233
0.06085
0.03860
0.03401
0.04755
0.06679
0.05243
0.01013
-0.04028
-0.09731
-0.13429
-0.15637
-0.16861
-0.18174
-0.20212
-0.22364
-0.24969
-0.25486
-0.25343
-0.24283
-0.22552
-0.21094
-0.21181
-0.20245
-0.19324
-0.13327
0.01969
0.26808
0.58045
0.86555
1.12276
1.35536
1.54759
1.65397
1.64771
1.54620
1.29155
0.88731
0.44086
0.08804
-0.11624
-0.19731
-0.23291
-0.25182
-0.29249
-0.34833
-0.38020
-0.39659
-0.39426
-0.39249
-0.40839
-0.41836
-0.42859
-0.42496
-0.42300
-0.43112
-0.43102
-0.42702
-0.44393
-0.45011
-0.44665
-0.44813
-0.44271
-0.43490
-0.43517
-0.44121
-0.44964
-0.47399
-0.47305
-0.47731
-0.50131
-0.49789
-0.50445
-0.51713
-0.52687
-0.55268
-0.57614
-0.58904
-0.59461
-0.61976
-0.63067
-0.65930
-0.68045
-0.70336
-0.73707
-0.74995
-0.75855
-0.76747
-0.76748
-0.77410
-0.77587
-0.77163
-0.76863
-0.74827
-0.72639
-0.69120
-0.64068
-0.59371
-0.54042
-0.50849
-0.46611
-0.43217
-0.38728
-0.33159
-0.28981
-0.25810
-0.22735
-0.21970
-0.21655
-0.19947
-0.20094
-0.18591
-0.17161
-0.16352
-0.15314
-0.16859
-0.16583
-0.16642
-0.17010
-0.17455
-0.16276
-0.14528
-0.14511
-0.14226
-0.14306
-0.15307
-0.16175
-0.15755
-0.14738
-0.13673
-0.13383
-0.12542
-0.12094
-0.11053
-0.10462
-0.08661
-0.04676
-0.00974
0.01032
0.02976
0.04219
0.05016
0.07263
0.11932
0.17599
0.18648
0.15799
0.13286
0.12299
0.12400
0.13089
0.11831
0.07979
0.02643
-0.00269
-0.04352
-0.08066
-0.10306
-0.13620
-0.16266
-0.17477
-0.17700
-0.16813
-0.15630
-0.14568
-0.15653
-0.15397
-0.15868
-0.15421
-0.14999
-0.12403
-0.03081
0.12431
0.36257
0.64556
0.90518
1.14907
1.37567
1.55875
1.66008
1.65711
1.54059
1.30563
0.91593
0.48117
0.14254
-0.07123
-0.14933
-0.14611
-0.13665
-0.16828
-0.22325
-0.27475
-0.29801
-0.29679
-0.29047
-0.27594
-0.28245
-0.28270
-0.29421
-0.29808
-0.31139
-0.31478
-0.31623
-0.30818
-0.29434
-0.29517
-0.30371
-0.31578
-0.31817
-0.33793
-0.32650
-0.31695
-0.31899
-0.31782
-0.33239
-0.34375
-0.36147
-0.37892
-0.38503
-0.39291
-0.39612
-0.40705
-0.41680
-0.43306
-0.47218
-0.48220
-0.48797
-0.50520
-0.49679
-0.49234
-0.49948
-0.50399
-0.51053
-0.50509
-0.47669
-0.45282
-0.41889
-0.38206
-0.34311
-0.30586
-0.27324
-0.25302
-0.23982
-0.20643
-0.18302
-0.14938
-0.14084
-0.12312
-0.10785
-0.11766
-0.11810
-0.10870
-0.11081
-0.10785
-0.09030
-0.08472
-0.08551
-0.09433
-0.10224
-0.10446
-0.10271
-0.08839
-0.08367
-0.08105
-0.07858
-0.07602
-0.09222
-0.09833
-0.10686
-0.11029
-0.09304
-0.08953
-0.09511
-0.09367
-0.10852
-0.09000
-0.08101
-0.05876
-0.02140
0.00830
0.03374
0.03651
0.04796
0.06781
0.09150
0.14334
0.18676
0.23199
0.22917
0.19245
0.16593
0.14161
0.15096
0.16972
0.16826
0.14111
0.09561
0.04994
-0.00111
-0.03769
-0.05625
-0.06862
-0.08765
-0.09863
-0.10410
-0.11860
-0.11591
-0.11800
-0.12430
-0.12437
-0.10915
-0.10001
-0.08057
-0.09623
-0.06494
-0.00905
0.12041
0.32655
0.61374
0.88355
1.12860
1.34685
1.53796
1.67072
1.65978
1.57309
1.38231
1.05777
0.67381
0.32983
0.09482
-0.03186
-0.08351
-0.11111
-0.14269
-0.19124
-0.23018
-0.25924
-0.25534
-0.25380
-0.25559
-0.26800
-0.29457
-0.29602
-0.29537
-0.29284
-0.28274
-0.29343
-0.29466
-0.30086
-0.31261
-0.31178
-0.31107
-0.32131
-0.31142
-0.29654
-0.30201
-0.31762
-0.33190
-0.34520
-0.35339
-0.35081
-0.35138
-0.35992
-0.37357
-0.40043
-0.42212
-0.43641
-0.44638
-0.46016
-0.46723
-0.47703
-0.50512
-0.51707
-0.52651
-0.54137
-0.54779
-0.54723
-0.54019
-0.52659
-0.50813
-0.48215
-0.46323
-0.44322
-0.40939
-0.37458
-0.33391
-0.28293
-0.25168
-0.22582
-0.20177
-0.18253
-0.16525
-0.14255
-0.12852
-0.10442
-0.08948
-0.11135
-0.10077
-0.09095
-0.09750
-0.10203
-0.10233
-0.08689
-0.07205
-0.06824
-0.07885
-0.07095
-0.05720
-0.03496
0.00459
0.04215
0.11703
0.18741
0.27110
0.36146
0.45013
0.57548
0.72576
0.84810
0.83289
0.57373
0.05444
-0.65389
-1.28333
-1.70190
-1.93593
-2.08077
-2.17161
-2.20780
-2.20207
-2.15854
-2.06333
-1.91862
-1.75506
-1.56844
-1.44331
-1.37319
-1.31930
-1.26063
-1.15377
-1.00629
-0.83644
-0.69030
-0.61990
-0.56713
-0.52472
-0.43530
-0.28913
-0.10325
0.07010
0.19368
0.25866
0.27133
0.28580
0.30584
0.31881
0.34455
0.36388
0.36685
0.39781
0.42534
0.45144
0.48452
0.49006
0.51242
0.51652
0.53639
0.56884
0.59695
0.63971
0.66734
0.69002
0.71680
0.74083
0.76702
0.79314
0.83847
0.86668
0.88201
0.91563
0.94178
0.94297
0.93759
0.93815
0.94250
0.92807
0.91504
0.88485
0.84932
0.80938
0.76571
0.71827
0.66835
0.61931
0.58089
0.53444
0.48033
0.43494
0.38584
0.32984
0.27475
0.24400
0.21878
0.19687
0.15772
0.12771
0.10261
0.06290
0.03504
0.01782
0.00967
0.00217
0.00605
-0.00472
-0.03428
-0.04803
-0.05804
-0.05380
-0.03825
-0.03662
-0.02080
-0.02506
-0.04716
-0.05817
-0.05324
-0.05564
-0.05141
-0.03458
-0.02087
-0.02316
-0.03723
-0.05010
-0.06051
-0.06203
-0.07044
-0.06355
-0.05759
-0.05629
-0.07324
-0.08251
-0.08869
-0.09717
-0.10795
-0.09841
-0.08317
-0.08067
-0.08272
-0.09948
-0.10468
-0.10753
-0.11767
-0.11423
-0.09845
-0.09815
-0.10643
-0.09122
-0.10095
-0.10863
-0.11063
-0.11684
-0.10355
-0.09938
-0.09599
-0.09182
-0.10880
-0.11974
-0.11576
-0.11002
-0.11797
-0.10168
-0.09232
-0.08085
-0.05693
-0.04980
-0.03075
-0.00551
0.01869
0.04643
0.05588
0.07296
0.10692
0.13660
0.17646
0.19669
0.18609
0.15631
0.13366
0.11443
0.12348
0.14361
0.11428
0.08001
0.03743
0.00502
-0.02235
-0.04612
-0.07206
-0.10911
-0.13884
-0.17371
-0.18431
-0.16482
-0.15278
-0.14245
-0.13980
-0.13863
-0.14308
-0.15373
-0.13544
-0.05669
0.08377
0.33796
0.64047
0.92095
1.18011
1.41029
1.58095
1.64288
1.58916
1.41993
1.10258
0.66427
0.26400
0.00744
-0.12938
-0.17733
-0.18931
-0.21173
-0.25611
-0.30355
-0.33229
-0.35000
-0.35113
-0.36326
-0.37264
-0.37587
-0.37167
-0.36483
-0.37796
-0.37027
-0.38526
-0.38393
-0.39220
-0.39646
-0.38640
-0.38430
-0.39165
-0.39339
-0.40209
-0.41068
-0.41684
-0.41869
-0.41793
-0.41810
-0.42384
-0.44181
-0.47130
-0.49658
-0.51074
-0.53869
-0.55979
-0.58196
-0.59377
-0.62112
-0.65056
-0.67267
-0.69991
-0.73243
-0.72754
-0.72220
-0.73586
-0.73713
-0.73389
-0.74167
-0.74613
-0.72923
-0.69784
-0.65628
-0.60555
-0.56863
-0.52983
-0.49919
-0.46263
-0.42807
-0.39654
-0.35149
-0.30381
-0.26516
-0.23672
-0.22266
-0.21729
-0.20185
-0.18929
-0.18366
-0.17799
-0.16158
-0.15917
-0.16463
-0.17457
-0.18017
-0.18658
-0.18981
-0.17149
-0.15045
-0.14768
-0.14301
-0.14666
-0.15901
-0.16207
-0.17266
-0.17347
-0.15966
-0.15614
-0.15414
-0.15231
-0.14603
-0.14362
-0.11894
-0.06786
-0.03724
-0.00185
0.00994
0.03124
0.02309
0.02537
0.04391
0.07534
0.11946
0.14134
0.12251
0.07734
0.04740
0.04294
0.04686
0.05901
0.05829
0.03075
-0.01227
-0.03818
-0.07534
-0.10420
-0.12693
-0.14347
-0.16017
-0.17727
-0.18513
-0.18490
-0.19933
-0.19518
-0.18238
-0.18409
-0.16845
-0.16660
-0.16857
-0.12994
-0.06112
0.07786
0.31242
0.63484
0.94734
1.21245
1.45676
1.63249
1.68370
1.60437
1.36054
0.96443
0.47486
0.09931
-0.09515
-0.15144
-0.15183
-0.14742
-0.18395
-0.24436
-0.29774
-0.31559
-0.30482
-0.29643
-0.29175
-0.30063
-0.32291
-0.33940
-0.35236
-0.35281
-0.35085
-0.33451
-0.33238
-0.33934
-0.34073
-0.34320
-0.33974
-0.33569
-0.33462
-0.33563
-0.34002
-0.34604
-0.36114
-0.37066
-0.39515
-0.40892
-0.42699
-0.42963
-0.41905
-0.43786
-0.46398
-0.48365
-0.50394
-0.52272
-0.54240
-0.53575
-0.54671
-0.54043
-0.55481
-0.57353
-0.58518
-0.58253
-0.56547
-0.54551
-0.52219
-0.49546
-0.47028
-0.45086
-0.42758
-0.39487
-0.37788
-0.33581
-0.29350
-0.25281
-0.22371
-0.20638
-0.19529
-0.20683
-0.19650
-0.18577
-0.18154
-0.16890
-0.16921
-0.17403
-0.18795
-0.20337
-0.20406
-0.19345
-0.18195
-0.16252
-0.16404
-0.17273
-0.18071
-0.17984
-0.19899
-0.19825
-0.19218
-0.18421
-0.16271
-0.16191
-0.15901
-0.16015
-0.18114
-0.18647
-0.18912
-0.15422
-0.12359
-0.08828
-0.05262
-0.03129
-0.01462
-0.00621
0.00753
0.01869
0.05517
0.09488
0.12527
0.11062
0.06324
0.03465
0.01893
0.02846
0.04203
0.02518
-0.00021
-0.01840
-0.06952
-0.10018
-0.12321
-0.13729
-0.14839
-0.16270
-0.17711
-0.18393
-0.16897
-0.16931
-0.17352
-0.17966
-0.16285
-0.15243
-0.13780
-0.09264
0.01317
0.20813
0.47936
0.77089
1.04399
1.28221
1.51697
1.68548
1.76589
1.72220
1.54211
1.18280
0.69794
0.25824
-0.02038
-0.13585
-0.14863
-0.13724
-0.16913
-0.23229
-0.28803
-0.31267
-0.31316
-0.30909
-0.29757
-0.31396
-0.33824
-0.34931
-0.35342
-0.34582
-0.33819
-0.33148
-0.33207
-0.34250
-0.34476
-0.35335
-0.36331
-0.36371
-0.36679
-0.35944
-0.35878
-0.36474
-0.37388
-0.38096
-0.40257
-0.41300
-0.42101
-0.42027
-0.41054
-0.42035
-0.44342
-0.46372
-0.48363
-0.50094
-0.52351
-0.53431
-0.54864
-0.58628
-0.58938
-0.60361
-0.61221
-0.62519
-0.62598
-0.60617
-0.57816
-0.56162
-0.53152
-0.52065
-0.50560
-0.46778
-0.44078
-0.39663
-0.34313
-0.30420
-0.28358
-0.24967
-0.22161
-0.21502
-0.20287
-0.17470
-0.15836
-0.14587
-0.13813
-0.13132
-0.14563
-0.15124
-0.16105
-0.15495
-0.14691
-0.13468
-0.12634
-0.12909
-0.13409
-0.13411
-0.14127
-0.13194
-0.12319
-0.12993
-0.12091
-0.11348
-0.13020
-0.14640
-0.15526
-0.15870
-0.14411
-0.12109
-0.09448
-0.07415
-0.07079
-0.05468
-0.03060
-0.00854
0.01901
0.04119
0.06123
0.07248
0.09061
0.11075
0.14528
0.16021
0.13171
0.09340
0.08297
0.09728
0.10306
0.08405
0.05580
0.00761
-0.01974
-0.04039
-0.06088
-0.07016
-0.09638
-0.11003
-0.14362
-0.15942
-0.16057
-0.14661
-0.13889
-0.12407
-0.10998
-0.10505
-0.11270
-0.11895
-0.09074
-0.00325
0.17318
0.43765
0.74660
1.02206
1.26903
1.50330
1.68625
1.75855
1.71814
1.55526
1.21925
0.72404
0.30325
0.01407
-0.11642
-0.13719
-0.14471
-0.14987
-0.18742
-0.23537
-0.25018
-0.27495
-0.27105
-0.26703
-0.28421
-0.27949
-0.27981
-0.27968
-0.27932
-0.28574
-0.28672
-0.29396
-0.29929
-0.29872
-0.30008
-0.28530
-0.28807
-0.28564
-0.29183
-0.30159
-0.31767
-0.32167
-0.32669
-0.32028
-0.31671
-0.33158
-0.34302
-0.36675
-0.39881
-0.41270
-0.41779
-0.42561
-0.44379
-0.46786
-0.48899
-0.51363
-0.51896
-0.51426
-0.51990
-0.50991
-0.50456
-0.50268
-0.48888
-0.47620
-0.45937
-0.44388
-0.40724
-0.36603
-0.33698
-0.29628
-0.26512
-0.23769
-0.21999
-0.18872
-0.16552
-0.13901
-0.11540
-0.10139
-0.08044
-0.08803
-0.09619
-0.08924
-0.09109
-0.08786
-0.08674
-0.06876
-0.08492
-0.07732
-0.08446
-0.10542
-0.10086
-0.10565
-0.08610
-0.06726
-0.06544
-0.06099
-0.06510
-0.08049
-0.08842
-0.08235
-0.07329
-0.05705
-0.05638
-0.06494
-0.07070
-0.06722
-0.04818
0.00171
0.08986
0.20797
0.32637
0.43785
0.54368
0.70287
0.87561
1.06932
1.30109
1.55134
1.75305
1.86241
1.91822
1.95912
2.01851
2.07616
2.09521
2.09386
2.07754
2.01923
1.93729
1.79350
1.58689
1.37931
1.20361
1.02910
0.83323
0.61762
0.38481
0.17278
-0.01913
-0.19560
-0.34841
-0.45510
-0.49302
-0.50914
-0.52785
-0.55999
-0.59946
-0.64239
-0.68527
-0.71806
-0.74584
-0.74162
-0.75142
-0.78566
-0.81675
-0.83761
-0.88325
-0.92234
-0.92839
-0.93469
-0.94859
-0.95238
-0.97598
-1.02066
-1.05283
-1.07178
-1.09508
-1.11688
-1.11585
-1.13441
-1.14904
-1.15539
-1.16852
-1.17952
-1.16777
-1.15604
-1.13558
-1.10559
-1.07787
-1.05033
-1.02144
-0.97492
-0.93140
-0.88760
-0.83271
-0.75895
-0.70012
-0.64454
-0.59215
-0.55894
-0.51600
-0.45260
-0.40099
-0.35380
-0.31843
-0.29297
-0.27580
-0.26529
-0.23834
-0.22385
-0.20282
-0.17794
-0.16101
-0.15619
-0.14701
-0.15630
-0.16127
-0.15701
-0.16149
-0.15229
-0.13281
-0.13870
-0.15296
-0.15195
-0.16311
-0.16536
-0.16578
-0.15421
-0.13803
-0.12903
-0.12805
-0.13356
-0.14451
-0.15025
-0.14487
-0.13752
-0.12933
-0.11951
-0.12033
-0.12607
-0.13380
-0.14021
-0.13753
-0.13310
-0.12264
-0.11503
-0.10379
-0.10975
-0.11290
-0.11533
-0.12626
-0.11120
-0.09953
-0.09157
-0.07529
-0.06506
-0.06450
-0.03996
-0.01777
0.01235
0.04808
0.07654
0.09721
0.11022
0.12725
0.14752
0.17232
0.19156
0.20079
0.18575
0.16778
0.14743
0.15424
0.15204
0.13170
0.11158
0.08400
0.06274
0.05567
0.04368
0.05031
0.05611
0.05956
0.08521
0.12051
0.20360
0.30482
0.41759
0.54068
0.67999
0.81788
0.86183
0.74429
0.41963
-0.10978
-0.70694
-1.16576
-1.43010
-1.56589
-1.72346
-1.92781
-2.08600
-2.12768
-2.07684
-1.95466
-1.77278
-1.50794
-1.19100
-0.89235
-0.60839
-0.38230
-0.24127
-0.17663
-0.14685
-0.13477
-0.12603
-0.10335
-0.07559
-0.04209
-0.02059
0.00553
0.02105
0.03353
0.03222
0.02670
0.04091
0.04944
0.07340
0.08401
0.09926
0.10553
0.12352
0.12758
0.12265
0.13422
0.15219
0.17321
0.20056
0.20902
0.21627
0.22619
0.22401
0.24339
0.26271
0.29460
0.32657
0.36014
0.38460
0.40755
0.42869
0.45287
0.49031
0.52174
0.54891
0.57305
0.58430
0.58762
0.57438
0.57808
0.57293
0.56246
0.53524
0.51988
0.49403
0.45491
0.41322
0.36954
0.32065
0.28097
0.24675
0.22127
0.20275
0.17705
0.15768
0.15794
0.16982
0.19349
0.23763
0.29561
0.38703
0.47886
0.55072
0.56976
0.49682
0.28983
-0.04412
-0.50749
-0.99538
-1.44393
-1.80189
-2.10779
-2.35972
-2.51976
-2.54027
-2.43063
-2.27859
-2.11693
-1.95420
-1.77504
-1.58857
-1.42958
-1.30164
-1.18237
-1.08505
-1.00081
-0.88818
-0.76675
-0.62562
-0.39145
-0.14572
0.06865
0.20400
0.26615
0.27653
0.28236
0.29330
0.28951
0.28688
0.30163
0.33130
0.36561
0.39218
0.40136
0.39777
0.39963
0.40611
0.42230
0.45081
0.47434
0.49581
0.50218
0.50906
0.51984
0.53226
0.55957
0.58047
0.60710
0.63235
0.65847
0.67787
0.66868
0.68022
0.71927
0.74483
0.74933
0.78151
0.78752
0.77853
0.77407
0.75747
0.73968
0.71353
0.69354
0.66703
0.63679
0.60218
0.54987
0.50243
0.44076
0.39627
0.35438
0.31880
0.26393
0.21677
0.17981
0.15063
0.11546
0.08512
0.05595
0.03521
0.03276
0.01631
0.00271
-0.02127
-0.03475
-0.04791
-0.04248
-0.03962
-0.03856
-0.03326
-0.03227
-0.03790
-0.04811
-0.05764
-0.06626
-0.04862
-0.04277
-0.03739
-0.04278
-0.05452
-0.06461
-0.08090
-0.09320
-0.09380
-0.08601
-0.08266
-0.08882
-0.10025
-0.11940
-0.12470
-0.13599
-0.13575
-0.12725
-0.12927
-0.13756
-0.14201
-0.14395
-0.15327
-0.15231
-0.15542
-0.14819
-0.15582
-0.15146
-0.16040
-0.15733
-0.17952
-0.19331
-0.18395
-0.19549
-0.17881
-0.17765
-0.17746
-0.17495
-0.18593
-0.19571
-0.19869
-0.19583
-0.20386
-0.18833
-0.19774
-0.19999
-0.19744
-0.21390
-0.21606
-0.21888
-0.20381
-0.19719
-0.20027
-0.18858
-0.20121
-0.20728
-0.20645
-0.21658
-0.21412
-0.21438
-0.19673
-0.19646
-0.20394
-0.21192
-0.21274
-0.20733
-0.18668
-0.16916
-0.13947
-0.10696
-0.09097
-0.06538
-0.06655
-0.05425
-0.03652
0.01596
0.06861
0.11089
0.11122
0.08592
0.04862
0.02781
0.02877
0.04222
0.04217
0.02174
-0.01341
-0.06113
-0.10856
-0.14417
-0.17241
-0.20107
-0.21253
-0.23264
-0.24327
-0.25789
-0.26019
-0.25637
-0.26629
-0.26401
-0.25248
-0.23690
-0.23034
-0.18243
-0.07730
0.10825
0.40715
0.71128
1.01167
1.29311
1.54623
1.66274
1.66790
1.52635
1.22669
0.79183
0.32817
-0.00143
-0.18296
-0.24690
-0.26254
-0.29178
-0.34193
-0.38723
-0.42479
-0.43145
-0.41550
-0.41701
-0.42454
-0.44910
-0.47274
-0.47709
-0.47930
-0.47501
-0.46893
-0.45704
-0.46350
-0.46963
-0.48956
-0.50073
-0.50189
-0.50874
-0.51738
-0.51689
-0.52216
-0.52665
-0.53758
-0.55879
-0.55592
-0.57286
-0.57679
-0.59072
-0.60602
-0.63151
-0.65249
-0.67567
-0.70301
-0.74391
-0.75942
-0.78027
-0.79271
-0.80801
-0.82537
-0.83881
-0.86492
-0.86209
-0.85374
-0.83852
-0.83050
-0.80244
-0.77346
-0.74534
-0.72162
-0.67520
-0.61395
-0.58277
-0.52940
-0.48545
-0.44824
-0.40896
-0.38386
-0.36641
-0.33987
-0.30963
-0.29683
-0.28199
-0.27534
-0.27285
-0.28028
-0.28263
-0.29902
-0.28817
-0.26966
-0.24315
-0.22479
-0.22467
-0.23785
-0.24740
-0.27288
-0.27467
-0.26578
-0.23662
-0.24904
-0.24160
-0.24265
-0.23821
-0.23100
-0.20643
-0.17374
-0.13219
-0.08720
-0.05108
-0.02169
0.00209
0.03076
0.08315
0.13756
0.23720
0.36903
0.54412
0.70287
0.82666
0.91944
1.01417
1.16217
1.30292
1.44360
1.53336
1.56923
1.53380
1.33449
0.93112
0.28473
-0.44240
-1.06378
-1.47427
-1.63691
-1.63172
-1.50840
-1.34544
-1.19666
-1.07116
-0.94339
-0.80421
-0.65313
-0.51470
-0.41815
-0.39345
-0.39809
-0.40805
-0.41320
-0.40942
-0.39339
-0.39654
-0.39616
-0.38937
-0.40366
-0.39680
-0.40577
-0.39072
-0.37903
-0.37684
-0.38354
-0.38771
-0.39690
-0.39203
-0.39777
-0.39957
-0.38864
-0.38319
-0.39085
-0.38727
-0.39128
-0.38910
-0.37751
-0.35289
-0.34026
-0.31402
-0.30067
-0.30202
-0.29620
-0.28324
-0.25871
-0.23894
-0.20147
-0.16185
-0.12529
-0.11242
-0.10864
-0.10070
-0.10684
-0.11335
-0.10434
-0.08978
-0.08239
-0.09764
-0.10336
-0.13207
-0.15732
-0.17048
-0.19587
-0.21182
-0.22119
-0.23618
-0.24993
-0.27007
-0.27846
-0.27407
-0.26917
-0.26189
-0.26793
-0.26769
-0.25695
-0.25509
-0.27163
-0.28195
-0.27887
-0.25656
-0.24657
-0.23210
-0.22643
-0.23239
-0.24198
-0.26421
-0.25970
-0.26250
-0.23247
-0.21340
-0.20788
-0.20513
-0.23533
-0.25467
-0.25732
-0.25357
-0.24057
-0.21562
-0.19662
-0.20197
-0.21306
-0.23914
-0.24106
-0.24234
-0.24898
-0.24282
-0.21621
-0.21591
-0.22179
-0.21484
-0.23030
-0.22932
-0.21709
-0.18629
-0.15138
-0.12695
-0.10055
-0.08441
-0.06921
-0.07115
-0.05075
-0.01614
0.02556
0.06459
0.07161
0.04800
0.00760
-0.00878
-0.01016
-0.00222
0.01205
-0.00703
-0.04629
-0.08636
-0.12798
-0.15845
-0.17712
-0.19410
-0.20760
-0.21789
-0.24269
-0.25390
-0.26068
-0.25702
-0.25827
-0.25747
-0.24073
-0.23398
-0.22355
-0.19997
-0.12527
0.03430
0.31481
0.65654
0.98441
1.27208
1.52303
1.71529
1.76246
1.67733
1.42613
0.96934
0.45316
0.05452
-0.14371
-0.19928
-0.19556
-0.21586
-0.27029
-0.33265
-0.37740
-0.39360
-0.37068
-0.36559
-0.36438
-0.38511
-0.40567
-0.40324
-0.40035
-0.40249
-0.39530
-0.38782
-0.38318
-0.39518
-0.40743
-0.41382
-0.42179
-0.41280
-0.41699
-0.41724
-0.43522
-0.43865
-0.44802
-0.45528
-0.47063
-0.47587
-0.46789
-0.47956
-0.48393
-0.50122
-0.52988
-0.55868
-0.58122
-0.58488
-0.59324
-0.60781
-0.62685
-0.64951
-0.66830
-0.69095
-0.70052
-0.71850
-0.71248
-0.71235
-0.69204
-0.67894
-0.65220
-0.64511
-0.61032
-0.57652
-0.52813
-0.49103
-0.45204
-0.41475
-0.37997
-0.34748
-0.32358
-0.28849
-0.25870
-0.24030
-0.21979
-0.20966
-0.19977
-0.20228
-0.20475
-0.21387
-0.20329
-0.20908
-0.20689
-0.18410
-0.19115
-0.19586
-0.20321
-0.18912
-0.19116
-0.18404
-0.18048
-0.17785
-0.15973
-0.16014
-0.17232
-0.18190
-0.18618
-0.18020
-0.16826
-0.15897
-0.13082
-0.13135
-0.11723
-0.09379
-0.07582
-0.04871
-0.02077
-0.00634
0.01228
0.02353
0.03188
0.06272
0.08974
0.09423
0.07093
0.06142
0.03812
0.04885
0.05325
0.05149
0.02401
-0.01249
-0.04332
-0.07569
-0.08652
-0.10223
-0.11991
-0.14172
-0.16184
-0.17715
-0.18762
-0.16956
-0.15608
-0.14206
-0.14412
-0.13927
-0.13741
-0.14855
-0.13945
-0.07890
0.05358
0.27385
0.55049
0.83703
1.09083
1.32011
1.52415
1.68917
1.75201
1.73343
1.60629
1.32110
0.86972
0.40469
0.08000
-0.09338
-0.13913
-0.13138
-0.12852
-0.16869
-0.21617
-0.26215
-0.28539
-0.29361
-0.27984
-0.26481
-0.25573
-0.26128
-0.27009
-0.27873
-0.28680
-0.30270
-0.29181
-0.29613
-0.29286
-0.28489
-0.27701
-0.28904
-0.30283
-0.31245
-0.30428
-0.30677
-0.31331
-0.30680
-0.30733
-0.30995
-0.32682
-0.34874
-0.35626
-0.35542
-0.36683
-0.36957
-0.38644
-0.39895
-0.42042
-0.44194
-0.45841
-0.47003
-0.47618
-0.46554
-0.46111
-0.47112
-0.47591
-0.48147
-0.47967
-0.46149
-0.43378
-0.40390
-0.37973
-0.35091
-0.32694
-0.30028
-0.26915
-0.24957
-0.20919
-0.18319
-0.15595
-0.13284
-0.11747
-0.11244
-0.09562
-0.09477
-0.08439
-0.07091
-0.06032
-0.05388
-0.04911
-0.04617
-0.03925
-0.01978
0.01038
0.04201
0.10735
0.16641
0.23955
0.31521
0.40541
0.50099
0.61985
0.77486
0.91527
0.94008
0.74300
0.27595
-0.39027
-1.03398
-1.48014
-1.75486
-1.92081
-2.01516
-2.07308
-2.09831
-2.08571
-2.01769
-1.91540
-1.79357
-1.62914
-1.44831
-1.29125
-1.18509
-1.10605
-1.00211
-0.87446
-0.75856
-0.68818
-0.60872
-0.52724
-0.41118
-0.25557
-0.09287
0.06824
0.22976
0.32861
0.37794
0.39581
0.40311
0.38683
0.41033
0.42784
0.45535
0.48276
0.50146
0.53736
0.56625
0.57026
0.60004
0.61354
0.63298
0.64789
0.67441
0.70234
0.73599
0.77088
0.78141
0.81094
0.83468
0.86765
0.89303
0.92471
0.95093
0.99150
1.01740
1.02687
1.02541
1.01433
1.02335
1.03094
1.02078
1.00969
0.99751
0.95061
0.91848
0.88077
0.83023
0.78463
0.76396
0.71576
0.66318
0.61149
0.56590
0.49616
0.44930
0.42519
0.37631
0.35120
0.32636
0.30308
0.25981
0.22112
0.19285
0.17307
0.15038
0.14994
0.13546
0.12252
0.11004
0.09532
0.08905
0.07497
0.07756
0.08395
0.09807
0.10120
0.08626
0.09946
0.07472
0.06078
0.07833
0.07860
0.08353
0.08684
0.09667
0.08326
0.06603
0.04621
0.05504
0.06086
0.06870
0.06563
0.06415
0.06368
0.03086
0.02726
0.02442
0.03545
0.03692
0.04089
0.04466
0.03055
0.03386
0.02148
0.00833
0.01610
-0.00029
0.03482
0.03053
0.02126
0.00028
-0.00302
-0.01245
-0.01219
-0.00153
0.00489
0.00859
0.00372
-0.00498
-0.00422
-0.00278
0.00066
-0.00953
0.00394
0.02147
0.01867
0.02361
0.00994
0.01297
0.02955
0.04004
0.05673
0.09651
0.12755
0.15723
0.17590
0.19336
0.20026
0.21858
0.25321
0.31047
0.34662
0.34494
0.31706
0.28204
0.25533
0.25367
0.27117
0.25890
0.24768
0.19559
0.14636
0.12079
0.09407
0.05964
0.04749
0.01896
0.01486
0.00604
-0.00245
0.00320
-0.00728
0.00073
0.00703
0.01616
0.04034
0.05364
0.07792
0.16434
0.35111
0.60513
0.89270
1.17754
1.43951
1.66991
1.84278
1.88035
1.78940
1.56368
1.17608
0.73734
0.38496
0.16495
0.06063
0.02178
-0.01547
-0.05893
-0.10502
-0.12579
-0.14314
-0.14666
-0.14082
-0.13396
-0.14309
-0.15463
-0.16358
-0.17080
-0.17911
-0.15833
-0.15932
-0.16505
-0.16591
-0.17863
-0.18643
-0.20027
-0.20872
-0.20071
-0.18690
-0.18505
-0.21089
-0.22090
-0.24296
-0.26846
-0.27784
-0.27476
-0.27615
-0.28607
-0.31043
-0.33171
-0.37367
-0.40666
-0.42030
-0.45682
-0.46675
-0.46098
-0.48038
-0.49919
-0.52857
-0.55776
-0.56285
-0.57631
-0.58207
-0.55684
-0.54482
-0.52163
-0.50816
-0.49147
-0.47164
-0.44027
-0.39089
-0.34888
-0.29306
-0.26761
-0.22505
-0.20388
-0.18998
-0.14817
-0.10605
-0.07622
-0.04582
-0.02634
-0.01730
-0.02015
-0.01184
-0.00941
-0.00665
0.00576
0.00714
0.00917
0.00205
0.00744
0.00250
-0.00457
-0.00888
-0.00660
-0.00797
0.01056
0.02009
0.01508
0.01515
-0.00135
0.00057
0.00460
0.02171
0.04506
0.07467
0.10407
0.14109
0.17706
0.20282
0.23128
0.25508
0.27638
0.30403
0.34472
0.40231
0.47432
0.55346
0.61980
0.72691
0.83681
0.95479
1.07186
1.18711
1.30330
1.38245
1.47060
1.55856
1.62132
1.60961
1.45436
1.10855
0.52814
-0.14825
-0.78186
-1.21491
-1.42601
-1.45189
-1.32401
-1.16531
-1.02029
-0.92817
-0.83129
-0.71444
-0.54775
-0.37721
-0.24153
-0.16968
-0.15700
-0.16223
-0.17268
-0.17616
-0.15662
-0.14361
-0.12611
-0.12999
-0.14206
-0.14035
-0.15694
-0.15312
-0.14328
-0.13126
-0.12722
-0.11700
-0.12913
-0.12659
-0.13722
-0.14311
-0.14349
-0.13509
-0.12851
-0.10812
-0.10834
-0.10780
-0.10302
-0.11192
-0.08798
-0.07301
-0.04963
-0.02108
-0.00898
0.00689
0.04187
0.04919
0.06886
0.10769
0.11884
0.13823
0.17112
0.17682
0.18454
0.16675
0.15386
0.15401
0.14380
0.14586
0.13336
0.10447
0.08027
0.04812
0.02504
0.00620
-0.01232
-0.00851
-0.02081
-0.01910
-0.02654
-0.04029
-0.04877
-0.05117
-0.05553
-0.05814
-0.05544
-0.05428
-0.05022
-0.05484
-0.06682
-0.06674
-0.05331
-0.03734
-0.03131
-0.02527
-0.02883
-0.04045
-0.04243
-0.06138
-0.06469
-0.06244
-0.06049
-0.04719
-0.04542
-0.02583
-0.04280
-0.05324
-0.06620
-0.06749
-0.06129
-0.05384
-0.03935
-0.04055
-0.04225
-0.04361
-0.05089
-0.04842
-0.03530
-0.02319
-0.00742
0.01658
0.03859
0.06467
0.07094
0.08537
0.11213
0.12978
0.13765
0.15895
0.18916
0.21022
0.22190
0.20699
0.16883
0.13674
0.14005
0.16334
0.15322
0.14432
0.10687
0.06839
0.03793
0.02403
0.02079
-0.00312
-0.02600
-0.05043
-0.08306
-0.12168
-0.13191
-0.11522
-0.10118
-0.09032
-0.07603
-0.06493
-0.05969
-0.06247
-0.05215
-0.03076
0.04931
0.24038
0.53273
0.83206
1.10970
1.34481
1.55561
1.73961
1.82684
1.79988
1.65372
1.33197
0.87425
0.39943
0.09417
-0.03824
-0.08249
-0.06365
-0.07968
-0.11760
-0.19248
-0.22434
-0.24160
-0.25275
-0.24476
-0.24025
-0.23623
-0.23896
-0.24813
-0.26020
-0.27925
-0.29393
-0.28808
-0.30441
-0.28855
-0.27666
-0.27269
-0.28902
-0.29562
-0.31394
-0.31252
-0.30637
-0.31447
-0.31280
-0.31563
-0.33517
-0.34861
-0.38125
-0.39774
-0.42385
-0.44096
-0.45125
-0.46557
-0.49036
-0.51454
-0.54381
-0.57820
-0.60482
-0.61464
-0.62646
-0.62034
-0.61472
-0.60818
-0.60830
-0.60837
-0.58372
-0.54919
-0.52193
-0.48112
-0.43188
-0.38641
-0.33171
-0.30416
-0.27593
-0.25137
-0.22730
-0.20235
-0.17148
-0.15160
-0.14516
-0.14710
-0.14669
-0.15046
-0.15131
-0.14135
-0.12171
-0.10937
-0.11210
-0.11743
-0.12379
-0.12521
-0.11791
-0.11354
-0.11407
-0.11183
-0.11540
-0.10537
-0.11274
-0.10404
-0.10513
-0.10637
-0.09903
-0.10350
-0.10808
-0.10326
-0.09930
-0.08578
-0.05719
-0.02785
0.01521
0.04136
0.05808
0.06367
0.06806
0.05949
0.07158
0.08599
0.13378
0.15335
0.13797
0.10541
0.07151
0.06190
0.06350
0.06848
0.06901
0.04749
0.01246
-0.01303
-0.03390
-0.05415
-0.07600
-0.10148
-0.12713
-0.12285
-0.11719
-0.11827
-0.11083
-0.11064
-0.11415
-0.11003
-0.09988
-0.09972
-0.04629
0.06986
0.28855
0.58392
0.89784
1.18916
1.45759
1.67352
1.79662
1.79432
1.65400
1.34993
0.86792
0.38039
0.05493
-0.08441
-0.11361
-0.09741
-0.09938
-0.13854
-0.18673
-0.23746
-0.26453
-0.27875
-0.25798
-0.24663
-0.26512
-0.27422
-0.27499
-0.29103
-0.30074
-0.28536
-0.27779
-0.27181
-0.25540
-0.26611
-0.27754
-0.29618
-0.31689
-0.31685
-0.32211
-0.32908
-0.31837
-0.32853
-0.33343
-0.33489
-0.35829
-0.36659
-0.38647
-0.39063
-0.38831
-0.40962
-0.42487
-0.44151
-0.45996
-0.47755
-0.49449
-0.50397
-0.50325
-0.51660
-0.52369
-0.53484
-0.54473
-0.55919
-0.55619
-0.56005
-0.53352
-0.49080
-0.48747
-0.45608
-0.42219
-0.40459
-0.37458
-0.34421
-0.29494
-0.26511
-0.24212
-0.21023
-0.20711
-0.19266
-0.18947
-0.17732
-0.15243
-0.15337
-0.14518
-0.14646
-0.15424
-0.16423
-0.15638
-0.14623
-0.12248
-0.09454
-0.06681
-0.02216
0.01580
0.07470
0.15602
0.24781
0.33956
0.46528
0.63155
0.80794
0.91805
0.89063
0.63129
0.09648
-0.60879
-1.21845
-1.62463
-1.86940
-2.03616
-2.14234
-2.18470
-2.16759
-2.10647
-1.98658
-1.82543
-1.63767
-1.46563
-1.34030
-1.26052
-1.16775
-1.02841
-0.89716
-0.82285
-0.76278
-0.68722
-0.57824
-0.43933
-0.27875
-0.10600
0.05856
0.18369
0.25190
0.26185
0.26488
0.26023
0.25599
0.27837
0.30870
0.34327
0.36662
0.39263
0.41226
0.43064
0.44937
0.46245
0.48527
0.49843
0.53743
0.58632
0.61387
0.64129
0.65262
0.68397
0.70763
0.74927
0.77723
0.81769
0.85834
0.87675
0.88443
0.88914
0.87998
0.86673
0.86537
0.85586
0.82757
0.78051
0.74465
0.68082
0.62700
0.55848
0.51263
0.48001
0.44644
0.40643
0.35127
0.31196
0.25852
0.19841
0.15427
0.12902
0.10445
0.09233
0.06517
0.03059
-0.00399
-0.03304
-0.06412
-0.06463
-0.06257
-0.04553
-0.03979
-0.03753
-0.05085
-0.07945
-0.11266
-0.12257
-0.10162
-0.06670
-0.03532
-0.04894
-0.06540
-0.09410
-0.10959
-0.10200
-0.10641
-0.10751
-0.08788
-0.08191
-0.07585
-0.07548
-0.11569
-0.13152
-0.12527
-0.11347
-0.10635
-0.11750
-0.11580
-0.11662
-0.12507
-0.13483
-0.14890
-0.14565
-0.14211
-0.13237
-0.12280
-0.12707
-0.11786
-0.11580
-0.13095
-0.14486
-0.15688
-0.15154
-0.12532
-0.10299
-0.09027
-0.08695
-0.10758
-0.15082
-0.18922
-0.18954
-0.14946
-0.10389
-0.09727
-0.11575
-0.12297
-0.13030
-0.13612
-0.12995
-0.12565
-0.12056
-0.10533
-0.08525
-0.05481
-0.03702
-0.03302
-0.01477
0.01740
0.06975
0.11510
0.15519
0.19829
0.18332
0.14910
0.11467
0.09951
0.09765
0.11076
0.13944
0.15709
0.14460
0.11916
0.05500
0.00458
-0.02652
-0.05807
-0.05836
-0.09559
-0.13747
-0.17365
-0.16714
-0.13873
-0.15705
-0.15823
-0.13960
-0.11061
-0.10899
-0.14285
-0.17862
-0.19468
-0.13409
0.01486
0.22905
0.48105
0.77433
1.04350
1.25744
1.46090
1.61653
1.65750
1.58760
1.36268
0.96472
0.49721
0.13874
-0.05864
-0.17846
-0.19915
-0.21683
-0.25747
-0.30332
-0.34632
-0.42234
-0.49905
-0.51841
-0.48701
-0.45342
-0.44210
-0.44619
-0.45032
-0.42962
-0.42994
-0.45430
-0.48346
-0.48777
-0.46506
-0.44806
-0.48687
-0.52266
-0.55501
-0.56596
-0.56932
-0.56257
-0.55542
-0.55622
-0.56090
-0.60350
-0.62243
-0.64886
-0.68274
-0.68559
-0.67243
-0.66217
-0.68637
-0.76146
-0.83264
-0.82975
-0.79491
-0.79870
-0.85842
-0.94033
-0.99565
-0.99944
-0.91163
-0.80715
-0.81391
-0.88285
-0.94626
-0.96244
-0.91736
-0.84749
-0.81659
-0.79051
-0.78208
-0.78227
-0.74909
-0.68215
-0.57255
-0.49824
-0.47507
-0.48179
-0.46953
-0.48380
-0.47568
-0.37746
-0.31992
-0.33774
-0.38471
-0.40776
-0.42731
-0.41452
-0.36129
-0.33187
-0.32399
-0.34350
-0.36948
-0.38450
-0.42430
-0.42563
-0.34958
-0.27688
-0.28284
-0.32099
-0.33986
-0.35303
-0.36147
-0.34948
-0.34644
-0.32425
-0.29028
-0.23482
-0.19917
-0.22038
-0.22791
-0.20022
-0.13094
-0.04549
-0.01960
-0.02522
-0.01016
0.01857
0.04071
0.05394
0.08387
0.13661
0.24339
0.36598
0.46894
0.54048
0.60166
0.69831
0.85304
1.00772
1.14466
1.23566
1.29921
1.29549
1.18244
0.91543
0.47196
-0.06996
-0.62667
-1.06501
-1.38052
-1.57740
-1.64561
-1.60935
-1.46513
-1.30459
-1.13332
-0.97262
-0.87709
-0.76971
-0.66933
-0.65013
-0.65096
-0.59142
-0.47768
-0.38025
-0.36783
-0.36605
-0.32335
-0.31767
-0.33904
-0.34884
-0.34494
-0.34041
-0.36460
-0.40608
-0.41550
-0.35438
-0.24636
-0.14386
-0.12180
-0.24962
-0.42046
-0.48097
-0.44706
-0.38458
-0.32277
-0.25619
-0.22837
-0.21914
-0.20420
-0.24686
-0.33853
-0.39153
-0.36773
-0.30552
-0.24594
-0.22299
-0.22749
-0.21286
-0.17213
-0.14439
-0.11382
-0.10191
-0.09390
-0.04763
-0.01306
-0.00859
-0.01722
-0.01507
0.00022
0.00390
0.02391
0.02392
0.00408
-0.00978
-0.01969
-0.04188
-0.06577
-0.10001
-0.13122
-0.09883
-0.06512
-0.08893
-0.17154
-0.25193
-0.24935
-0.20313
-0.18169
-0.19051
-0.19432
-0.19783
-0.18107
-0.15428
-0.14392
-0.14457
-0.15858
-0.15399
-0.14045
-0.12063
-0.09329
-0.10053
-0.11918
-0.13328
-0.11252
-0.10010
-0.08623
-0.06978
-0.06323
-0.08071
-0.06664
-0.05443
-0.03778
-0.02470
-0.01377
-0.03299
-0.05476
-0.04504
-0.01410
-0.01652
-0.04054
-0.05226
-0.02549
0.00422
0.01954
0.04660
0.05973
0.10453
0.15431
0.16562
0.17295
0.18459
0.20997
0.25446
0.29059
0.30414
0.27800
0.25620
0.26722
0.27195
0.26927
0.25114
0.23399
0.19074
0.12472
0.07553
0.04364
0.02935
0.02076
0.00410
-0.00104
0.00070
-0.00453
-0.00418
0.00239
-0.00243
-0.01675
-0.03065
-0.00525
0.06876
0.19103
0.36706
0.61968
0.90917
1.19108
1.46002
1.68821
1.84090
1.87323
1.79134
1.56214
1.16965
0.71678
0.32646
0.11310
0.04145
0.03918
0.01993
-0.02773
-0.12898
-0.23396
-0.28980
-0.29004
-0.23664
-0.18574
-0.15005
-0.15456
-0.20564
-0.26809
-0.32354
-0.33090
-0.31784
-0.27089
-0.23752
-0.24175
-0.26303
-0.27673
-0.29823
-0.29031
-0.29337
-0.28266
-0.26649
-0.24479
-0.22878
-0.23049
-0.27324
-0.33187
-0.37447
-0.37281
-0.36051
-0.37263
-0.38587
-0.39748
-0.42584
-0.46040
-0.49649
-0.51888
-0.47926
-0.45171
-0.45813
-0.49171
-0.53569
-0.53631
-0.53599
-0.53519
-0.49341
-0.44072
-0.39449
-0.35068
-0.30608
-0.26470
-0.26833
-0.25033
-0.21929
-0.17639
-0.11644
-0.05332
-0.03203
-0.03498
-0.03930
-0.04056
-0.01686
0.02113
0.02362
0.01159
-0.01601
-0.03289
0.00880
0.03380
0.04082
0.03990
0.03961
0.04096
0.01143
-0.02590
-0.00234
0.02160
0.04157
0.05647
0.05253
0.05023
0.06495
0.07402
0.06345
0.05178
0.05080
0.05067
0.09286
0.12739
0.17213
0.19104
0.21704
0.22905
0.20756
0.19166
0.23695
0.32453
0.41086
0.42606
0.37274
0.30619
0.27984
0.32223
0.34446
0.32854
0.29121
0.23138
0.18659
0.15897
0.16393
0.17919
0.13802
0.08410
0.06113
0.05569
0.07764
0.09469
0.08475
0.05027
0.03372
0.06403
0.09428
0.10155
0.09673
0.14663
0.29863
0.57083
0.91470
1.21836
1.47256
1.70930
1.85225
1.88689
1.82452
1.65599
1.33907
0.90974
0.53068
0.25998
0.06840
-0.00862
-0.00535
0.02027
0.02664
-0.00728
-0.04634
-0.06591
-0.06409
-0.05807
-0.06687
-0.08529
-0.10010
-0.08116
-0.05082
-0.02969
-0.06313
-0.10474
-0.11965
-0.12667
-0.13765
-0.16914
-0.15737
-0.13002
-0.11354
-0.11019
-0.11891
-0.11597
-0.11338
-0.11551
-0.12675
-0.13789
-0.15606
-0.15477
-0.15646
-0.21069
-0.25441
-0.25127
-0.24212
-0.24004
-0.26195
-0.29248
-0.33800
-0.37239
-0.36227
-0.34386
-0.28631
-0.23843
-0.24395
-0.26025
-0.26952
-0.24687
-0.22158
-0.17424
-0.11867
-0.07084
-0.01924
0.01658
0.03955
0.05925
0.06784
0.07730
0.08748
0.11183
0.13031
0.11439
0.09432
0.08006
0.09108
0.08320
0.09915
0.13340
0.16885
0.17575
0.12740
0.08740
0.07068
0.08954
0.11175
0.14104
0.17648
0.18498
0.15265
0.11840
0.08663
0.07495
0.09739
0.15033
0.21834
0.25992
0.27688
0.26378
0.26554
0.28831
0.32921
0.37828
0.43421
0.46856
0.48869
0.47826
0.44929
0.39160
0.36038
0.38611
0.40943
0.38071
0.33642
0.30224
0.28233
0.25413
0.21571
0.15518
0.11628
0.10160
0.11522
0.14209
0.14376
0.14092
0.14506
0.15526
0.15365
0.13780
0.14031
0.16981
0.20974
0.32449
0.52594
0.78708
1.05368
1.31659
1.55233
1.78777
1.95626
2.01886
1.98075
1.78007
1.39358
0.90956
0.51549
0.27097
0.17852
0.17170
0.17901
0.16658
0.09933
0.05136
0.03321
0.02826
0.03677
0.05578
0.06061
0.05790
0.05450
0.04980
0.03976
0.02077
0.02163
0.05203
0.07471
0.07275
0.05368
0.03157
-0.00182
0.00450
0.01622
0.03972
0.02729
0.00377
-0.01725
-0.03524
-0.04851
-0.04112
-0.03963
-0.04074
-0.04739
-0.07381
-0.10672
-0.13169
-0.16832
-0.18495
-0.19210
-0.17286
-0.16628
-0.16751
-0.15307
-0.14974
-0.16497
-0.16917
-0.15659
-0.11248
-0.06819
-0.02678
0.00577
0.02855
0.05867
0.08038
0.10790
0.13250
0.16243
0.18604
0.19955
0.21624
0.22939
0.23723
0.25386
0.25545
0.24102
0.21967
0.21871
0.23018
0.24730
0.27338
0.29956
0.30108
0.28525
0.26436
0.23964
0.25750
0.29281
0.28958
0.27668
0.25357
0.25356
0.28125
0.31912
0.32666
0.31357
0.30818
0.35399
0.41869
0.45461
0.47847
0.53629
0.61549
0.67771
0.74629
0.84223
0.98798
1.18141
1.34739
1.47195
1.57567
1.66558
1.75188
1.84447
1.94639
2.04460
2.10197
2.02702
1.78906
1.34982
0.72907
0.03852
-0.57016
-0.96516
-1.14603
-1.15220
-1.02947
-0.88766
-0.79091
-0.72419
-0.63957
-0.47866
-0.30922
-0.17685
-0.07352
0.01996
0.09172
0.13956
0.10460
0.01462
-0.04831
-0.05282
-0.01228
0.00532
0.01087
0.02191
0.04592
0.04829
0.03282
-0.00854
-0.03244
-0.05024
-0.07947
-0.06958
-0.04743
-0.04407
-0.06442
-0.09675
-0.09845
-0.05918
-0.03073
-0.03792
-0.05482
-0.06747
-0.05062
-0.02770
0.01299
0.07691
0.06946
0.05358
0.04236
0.05340
0.08563
0.12831
0.16377
0.20902
0.24504
0.27171
0.29478
0.29861
0.29371
0.28603
0.29702
0.32485
0.36274
0.37497
0.35939
0.32341
0.26020
0.23069
0.21898
0.23327
0.25459
0.24091
0.20952
0.16288
0.13791
0.14687
0.15317
0.16263
0.17337
0.16174
0.15688
0.14792
0.14709
0.17596
0.18387
0.16664
0.15340
0.14491
0.14019
0.13731
0.14186
0.13135
0.13866
0.15225
0.17826
0.19455
0.20178
0.19534
0.17521
0.15412
0.13013
0.15031
0.16636
0.19210
0.19004
0.19116
0.21335
0.20846
0.16688
0.13613
0.13681
0.18035
0.19956
0.20283
0.18116
0.15988
0.16568
0.18307
0.18655
0.22396
0.24103
0.25226
0.24554
0.25006
0.27717
0.29669
0.31424
0.33329
0.35937
0.39191
0.43389
0.47425
0.51325
0.53244
0.52336
0.46021
0.41397
0.42485
0.45403
0.46358
0.45534
0.41094
0.32569
0.25728
0.22836
0.25679
0.26909
0.23900
0.18065
0.13030
0.10325
0.11876
0.15171
0.16941
0.18870
0.17890
0.18097
0.16470
0.16339
0.16418
0.21563
0.33343
0.54593
0.83910
1.13859
1.39596
1.61505
1.82197
1.98311
2.06276
2.01751
1.84672
1.46710
0.94894
0.49701
0.24408
0.18571
0.20310
0.22312
0.18929
0.10725
0.03326
-0.03306
-0.04315
-0.01328
0.00472
-0.00305
-0.00773
-0.01591
-0.02444
-0.06179
-0.06423
-0.05183
-0.04572
-0.03653
-0.04218
-0.05097
-0.06915
-0.08651
-0.08728
-0.10253
-0.09392
-0.09664
-0.08189
-0.06820
-0.08056
-0.12538
-0.18384
-0.19862
-0.20401
-0.19959
-0.21417
-0.23321
-0.25519
-0.28181
-0.29591
-0.32099
-0.34013
-0.36579
-0.37874
-0.37400
-0.38357
-0.39474
-0.40383
-0.41336
-0.40075
-0.40484
-0.39507
-0.38534
-0.35356
-0.30489
-0.26426
-0.23069
-0.19819
-0.15639
-0.09580
-0.03720
0.01756
0.06596
0.08253
0.07686
0.08545
0.10705
0.11880
0.09146
0.08181
0.08986
0.08269
0.07812
0.07126
0.06064
0.06904
0.08675
0.09260
0.11199
0.08566
0.07167
0.06298
0.04227
0.04646
0.05755
0.06103
0.08782
0.09084
0.07666
0.06528
0.07470
0.07811
0.12891
0.17304
0.18954
0.21816
0.23609
0.25486
0.26823
0.30344
0.34974
0.38643
0.40388
0.38958
0.35755
0.35211
0.35205
0.36008
0.36198
0.33107
0.29905
0.26664
0.23235
0.19855
0.17305
0.14468
0.12530
0.11510
0.11682
0.11506
0.12818
0.11875
0.11920
0.10523
0.10131
0.11622
0.12526
0.17690
0.28223
0.48908
0.77364
1.06898
1.32908
1.56807
1.80181
1.92491
1.93812
1.79716
1.48350
1.02379
0.55804
0.24553
0.10936
0.08995
0.11585
0.11212
0.07403
0.00144
-0.03627
-0.04667
-0.05625
-0.03106
-0.03321
-0.03340
-0.04219
-0.04888
-0.06597
-0.07355
-0.06160
-0.06277
-0.06258
-0.06196
-0.06470
-0.06469
-0.07289
-0.09206
-0.08952
-0.10738
-0.09408
-0.08831
-0.09734
-0.10963
-0.12525
-0.15330
-0.17770
-0.18848
-0.21067
-0.22475
-0.22084
-0.23567
-0.27283
-0.29226
-0.30758
-0.32161
-0.32611
-0.32216
-0.32432
-0.34337
-0.35550
-0.36722
-0.36860
-0.35097
-0.32657
-0.30186
-0.26271
-0.22629
-0.19178
-0.16565
-0.15793
-0.15077
-0.11140
-0.06808
-0.03479
-0.00418
0.02835
0.03053
0.03411
0.02148
0.00768
0.02598
0.03165
0.04203
0.04411
0.04989
0.03669
0.04198
0.06592
0.08245
0.10290
0.14712
0.19691
0.27150
0.35139
0.43606
0.53485
0.67640
0.85243
1.00591
1.04879
0.84228
0.35961
-0.34466
-1.02188
-1.48898
-1.77328
-1.95280
-2.05660
-2.11914
-2.14463
-2.11245
-2.01942
-1.86379
-1.64762
-1.41422
-1.25285
-1.18263
-1.15424
-1.06814
-0.91896
-0.77299
-0.66853
-0.62552
-0.57701
-0.50780
-0.40224
-0.26365
-0.07717
0.08633
0.19188
0.24122
0.24476
0.24575
0.25892
0.28504
0.30474
0.33250
0.35892
0.38454
0.39532
0.42386
0.44673
0.47894
0.49451
0.51179
0.53147
0.55921
0.59799
0.63545
0.67048
0.69752
0.71762
0.73369
0.75985
0.77714
0.81255
0.85529
0.85724
0.86393
0.85583
0.84447
0.82288
0.80244
0.78533
0.76212
0.72220
0.69042
0.62856
0.54988
0.49117
0.42190
0.36926
0.33272
0.30098
0.26518
0.21434
0.16468
0.12096
0.07651
0.03812
0.01269
-0.00497
-0.01933
-0.02465
-0.05117
-0.07326
-0.09119
-0.10826
-0.10856
-0.12220
-0.11287
-0.11225
-0.10152
-0.11172
-0.11712
-0.13155
-0.13501
-0.12619
-0.11572
-0.11692
-0.10461
-0.09854
-0.11089
-0.11403
-0.14176
-0.15182
-0.15451
-0.13609
-0.13916
-0.15003
-0.16628
-0.16603
-0.17853
-0.18175
-0.18506
-0.18800
-0.18491
-0.17825
-0.19332
-0.19162
-0.19445
-0.20178
-0.20048
-0.21414
-0.20173
-0.20430
-0.20278
-0.20581
-0.22043
-0.23070
-0.22738
-0.20867
-0.20801
-0.20777
-0.22069
-0.21687
-0.22392
-0.21845
-0.21364
-0.20876
-0.19968
-0.19171
-0.17282
-0.14768
-0.13022
-0.10775
-0.08492
-0.05804
-0.04312
-0.02754
-0.01064
0.00639
0.04068
0.07461
0.07753
0.07968
0.05025
0.03439
0.03713
0.04324
0.03505
-0.00404
-0.04605
-0.08955
-0.12083
-0.14296
-0.16727
-0.20462
-0.24136
-0.26285
-0.27622
-0.29169
-0.27973
-0.27021
-0.25966
-0.26378
-0.25862
-0.28251
-0.27791
-0.25122
-0.16705
0.00180
0.27871
0.57579
0.85387
1.10565
1.33265
1.50018
1.57694
1.51709
1.32305
0.95300
0.47806
0.07709
-0.16517
-0.30081
-0.33199
-0.34094
-0.36954
-0.41260
-0.46027
-0.47958
-0.49775
-0.49750
-0.50863
-0.51381
-0.51645
-0.50945
-0.51574
-0.52318
-0.52022
-0.53801
-0.54044
-0.55688
-0.55184
-0.55018
-0.54577
-0.54675
-0.54958
-0.56367
-0.58446
-0.59047
-0.59965
-0.58580
-0.59915
-0.60618
-0.62092
-0.64036
-0.67047
-0.69419
-0.71784
-0.74532
-0.76316
-0.78320
-0.81000
-0.84055
-0.87079
-0.89017
-0.90727
-0.91671
-0.92373
-0.93471
-0.94795
-0.96698
-0.97515
-0.96128
-0.94867
-0.90577
-0.86179
-0.82312
-0.79252
-0.75413
-0.73139
-0.69055
-0.64781
-0.60057
-0.56301
-0.49642
-0.46314
-0.43945
-0.42992
-0.42649
-0.42644
-0.42351
-0.41388
-0.38766
-0.38517
-0.38249
-0.38614
-0.39608
-0.40373
-0.39936
-0.39768
-0.38853
-0.37013
-0.36089
-0.36679
-0.38444
-0.40295
-0.39680
-0.39632
-0.38380
-0.35685
-0.35071
-0.34305
-0.32405
-0.31288
-0.29624
-0.25872
-0.23849
-0.20753
-0.17749
-0.14415
-0.10277
-0.07280
-0.04766
-0.04654
-0.06181
-0.06413
-0.05413
-0.04119
-0.01093
-0.02199
-0.02659
-0.03133
-0.01827
0.05613
0.16127
0.27832
0.37158
0.45507
0.53163
0.63390
0.74338
0.87829
0.98898
1.05859
1.06877
0.96738
0.70800
0.23872
-0.38955
-0.99090
-1.44139
-1.73750
-1.87007
-1.86548
-1.77644
-1.63592
-1.49974
-1.38391
-1.28061
-1.14396
-0.97991
-0.82028
-0.69507
-0.61226
-0.60260
-0.60242
-0.59772
-0.60331
-0.57906
-0.56931
-0.56116
-0.57692
-0.58154
-0.59201
-0.58179
-0.57825
-0.57017
-0.56008
-0.56053
-0.57670
-0.58566
-0.58246
-0.57528
-0.57257
-0.55001
-0.53738
-0.53373
-0.53554
-0.54804
-0.54976
-0.55952
-0.55318
-0.54267
-0.52901
-0.51116
-0.50103
-0.49045
-0.47648
-0.44711
-0.42477
-0.41173
-0.38394
-0.35918
-0.34627
-0.32653
-0.31754
-0.30067
-0.26782
-0.23995
-0.22640
-0.21290
-0.22595
-0.24554
-0.26051
-0.30093
-0.30144
-0.31522
-0.31098
-0.32248
-0.34012
-0.35960
-0.38873
-0.42305
-0.43775
-0.44396
-0.45075
-0.44009
-0.44996
-0.43996
-0.45053
-0.44710
-0.46232
-0.46546
-0.46422
-0.46300
-0.45087
-0.46644
-0.46204
-0.46348
-0.46430
-0.45972
-0.45555
-0.44426
-0.46070
-0.45346
-0.45141
-0.46194
-0.45039
-0.45035
-0.45187
-0.44294
-0.43061
-0.43839
-0.42513
-0.40285
-0.38648
-0.36676
-0.34533
-0.29814
-0.28294
-0.28118
-0.26817
-0.23894
-0.19819
-0.15938
-0.14393
-0.17285
-0.17978
-0.18406
-0.17565
-0.16486
-0.18242
-0.22970
-0.28345
-0.33236
-0.37778
-0.39723
-0.41281
-0.43895
-0.45947
-0.47981
-0.49468
-0.48373
-0.48011
-0.46188
-0.45752
-0.45789
-0.46999
-0.46795
-0.44122
-0.35453
-0.17364
0.09860
0.43038
0.73511
1.00176
1.23981
1.41588
1.49096
1.44069
1.24378
0.87917
0.37302
-0.07191
-0.32282
-0.41547
-0.44457
-0.44868
-0.47683
-0.53298
-0.58897
-0.61714
-0.62580
-0.62953
-0.63113
-0.62690
-0.62896
-0.63006
-0.63370
-0.64141
-0.65161
-0.66569
-0.66399
-0.67424
-0.66636
-0.66667
-0.65872
-0.67465
-0.68010
-0.68877
-0.69697
-0.70300
-0.71127
-0.71940
-0.72233
-0.72683
-0.74580
-0.77584
-0.80272
-0.81517
-0.81993
-0.83554
-0.84421
-0.86803
-0.89280
-0.91441
-0.93235
-0.96284
-0.96188
-0.96495
-0.96239
-0.95524
-0.95315
-0.94322
-0.93133
-0.90851
-0.86840
-0.82075
-0.77698
-0.73299
-0.70051
-0.66960
-0.64221
-0.61567
-0.58344
-0.54836
-0.51855
-0.49086
-0.48901
-0.46890
-0.46854
-0.47560
-0.46886
-0.46601
-0.46387
-0.44181
-0.42549
-0.43120
-0.43021
-0.43920
-0.43931
-0.43206
-0.43257
-0.42445
-0.42887
-0.42449
-0.42894
-0.42299
-0.41369
-0.42023
-0.41803
-0.40941
-0.40569
-0.39788
-0.39146
-0.36532
-0.36442
-0.35836
-0.34014
-0.31367
-0.29290
-0.26987
-0.26160
-0.24605
-0.22344
-0.19203
-0.15896
-0.11691
-0.09793
-0.10174
-0.13652
-0.15003
-0.13873
-0.13209
-0.16232
-0.18913
-0.23551
-0.27942
-0.32041
-0.35480
-0.37088
-0.38674
-0.41141
-0.42741
-0.42662
-0.43944
-0.41814
-0.40806
-0.39487
-0.39585
-0.40535
-0.41031
-0.38822
-0.31812
-0.14430
0.08976
0.39255
0.70616
0.95756
1.17900
1.38683
1.51199
1.53167
1.41934
1.13543
0.69086
0.20131
-0.17001
-0.33283
-0.38081
-0.37057
-0.37268
-0.40892
-0.46239
-0.52746
-0.53712
-0.54127
-0.52742
-0.53081
-0.53076
-0.53462
-0.55015
-0.57174
-0.57679
-0.57329
-0.56674
-0.54862
-0.55482
-0.53945
-0.54688
-0.54807
-0.57250
-0.58210
-0.58462
-0.57950
-0.56506
-0.55871
-0.56186
-0.58548
-0.60263
-0.62088
-0.63075
-0.63515
-0.64694
-0.65353
-0.68046
-0.70674
-0.72570
-0.75326
-0.76896
-0.77659
-0.77326
-0.76521
-0.75939
-0.76137
-0.76484
-0.76462
-0.73789
-0.70879
-0.67367
-0.62571
-0.58270
-0.55665
-0.53937
-0.51344
-0.48225
-0.44236
-0.41087
-0.38313
-0.36121
-0.35357
-0.33695
-0.34120
-0.32934
-0.34547
-0.33702
-0.32957
-0.33231
-0.32239
-0.32844
-0.32396
-0.33634
-0.33778
-0.33384
-0.33789
-0.32998
-0.31044
-0.30475
-0.30937
-0.31603
-0.33485
-0.33492
-0.33424
-0.31287
-0.30517
-0.28746
-0.29068
-0.28797
-0.27371
-0.25450
-0.23003
-0.19713
-0.17198
-0.14930
-0.14215
-0.12430
-0.09879
-0.06622
-0.01923
0.01257
0.00008
-0.02348
-0.04591
-0.04807
-0.04388
-0.03965
-0.05696
-0.08337
-0.12572
-0.14800
-0.17957
-0.22359
-0.25574
-0.28336
-0.31162
-0.33711
-0.33996
-0.33321
-0.33163
-0.32376
-0.31901
-0.31912
-0.32305
-0.32374
-0.31913
-0.29582
-0.23150
-0.12248
0.08892
0.36214
0.63225
0.88235
1.10671
1.34100
1.53311
1.59951
1.55972
1.38321
1.06760
0.62992
0.21113
-0.07220
-0.20196
-0.26476
-0.28371
-0.29703
-0.34349
-0.41777
-0.46340
-0.47125
-0.46687
-0.45362
-0.44711
-0.46932
-0.46907
-0.48702
-0.51853
-0.51193
-0.50163
-0.48214
-0.48846
-0.49685
-0.51781
-0.54597
-0.53898
-0.53312
-0.52043
-0.50709
-0.50539
-0.51556
-0.52722
-0.53543
-0.54798
-0.56240
-0.56178
-0.56736
-0.58016
-0.60530
-0.62318
-0.63852
-0.66907
-0.68821
-0.69656
-0.71092
-0.70717
-0.72061
-0.73326
-0.74463
-0.76248
-0.76690
-0.74615
-0.73415
-0.71603
-0.70160
-0.66835
-0.63471
-0.60829
-0.58353
-0.54573
-0.51146
-0.47272
-0.43646
-0.39843
-0.37672
-0.37265
-0.35907
-0.35071
-0.33282
-0.31998
-0.30946
-0.30241
-0.30816
-0.30212
-0.29537
-0.30802
-0.31184
-0.31109
-0.29086
-0.28586
-0.28729
-0.29119
-0.30542
-0.30673
-0.31228
-0.30285
-0.28537
-0.26521
-0.26824
-0.26518
-0.27468
-0.28572
-0.27587
-0.24050
-0.20559
-0.14401
-0.09352
-0.04753
-0.02746
-0.03119
-0.00819
0.03736
0.12728
0.21991
0.29079
0.33727
0.40553
0.50988
0.63513
0.76069
0.86786
0.96852
1.07275
1.17185
1.25770
1.32592
1.34080
1.27092
1.06718
0.67972
0.11219
-0.53326
-1.11796
-1.51782
-1.72816
-1.73167
-1.61006
-1.42988
-1.28643
-1.19662
-1.09109
-0.96023
-0.82988
-0.68109
-0.55971
-0.50543
-0.49770
-0.49627
-0.48927
-0.48907
-0.48669
-0.47223
-0.47024
-0.48027
-0.46960
-0.47130
-0.47109
-0.46919
-0.46122
-0.47098
-0.46348
-0.45564
-0.47348
-0.46743
-0.46836
-0.46465
-0.47155
-0.48466
-0.47665
-0.48109
-0.45982
-0.44962
-0.43137
-0.41480
-0.39902
-0.39267
-0.39298
-0.36513
-0.34688
-0.31554
-0.26726
-0.24221
-0.21877
-0.20709
-0.19452
-0.18460
-0.16145
-0.13821
-0.12309
-0.11355
-0.13332
-0.13050
-0.13901
-0.16150
-0.17630
-0.17234
-0.15167
-0.14063
-0.12266
-0.10379
-0.07710
-0.02286
0.04083
0.12913
0.24134
0.34703
0.43005
0.46449
0.40171
0.17901
-0.20028
-0.67217
-1.11813
-1.49887
-1.82185
-2.09991
-2.35637
-2.56005
-2.65216
-2.65226
-2.58429
-2.46604
-2.33886
-2.20542
-2.03286
-1.88028
-1.74143
-1.65351
-1.57285
-1.48021
-1.38194
-1.29014
-1.21415
-1.13587
-1.04754
-0.91941
-0.73852
-0.53238
-0.30982
-0.13660
-0.01869
0.04254
0.08354
0.12839
0.16537
0.20122
0.25514
0.29725
0.31412
0.32780
0.33302
0.34887
0.36904
0.41366
0.44497
0.48413
0.50837
0.51302
0.53607
0.54665
0.57333
0.61043
0.64465
0.68280
0.72221
0.75203
0.77905
0.80696
0.82293
0.84731
0.86081
0.86353
0.86650
0.85519
0.83285
0.80679
0.78053
0.72996
0.68208
0.63800
0.58656
0.54196
0.49272
0.44506
0.39700
0.32329
0.25228
0.19752
0.16236
0.12230
0.07852
0.03109
0.00068
-0.05700
-0.07865
-0.09919
-0.10446
-0.10488
-0.12079
-0.12596
-0.14348
-0.14352
-0.14239
-0.14198
-0.13713
-0.13766
-0.13847
-0.14695
-0.15257
-0.16438
-0.17892
-0.16776
-0.17627
-0.17119
-0.16681
-0.15720
-0.16613
-0.18893
-0.19623
-0.21331
-0.21185
-0.20629
-0.20316
-0.19641
-0.22200
-0.23373
-0.23670
-0.23743
-0.24354
-0.26568
-0.24878
-0.24550
-0.25667
-0.26411
-0.26491
-0.25407
-0.25725
-0.26263
-0.27454
-0.27688
-0.28702
-0.28915
-0.29708
-0.30140
-0.29868
-0.28749
-0.29523
-0.29571
-0.30289
-0.30918
-0.30382
-0.30178
-0.29442
-0.28498
-0.28396
-0.26494
-0.25401
-0.24559
-0.26177
-0.27541
-0.28693
-0.31825
-0.30778
-0.29305
-0.25880
-0.23856
-0.24631
-0.26371
-0.28976
-0.30814
-0.29501
-0.28472
-0.25736
-0.23623
-0.23717
-0.27988
-0.31408
-0.32617
-0.28265
-0.22689
-0.19994
-0.19576
-0.19987
-0.22221
-0.25800
-0.28955
-0.29776
-0.25154
-0.20969
-0.19673
-0.18399
-0.17464
-0.15557
-0.13444
-0.07959
-0.02054
0.05641
0.13558
0.13621
0.06383
-0.06734
-0.14603
-0.12782
-0.02687
0.06255
0.07323
0.00137
-0.11947
-0.24800
-0.34080
-0.35933
-0.34062
-0.30681
-0.28719
-0.30067
-0.30559
-0.30983
-0.34101
-0.36674
-0.39395
-0.37213
-0.31250
-0.19986
-0.05789
0.15530
0.40801
0.68333
1.00105
1.33359
1.60192
1.69681
1.59756
1.30385
0.83486
0.29972
-0.11902
-0.32686
-0.40699
-0.40005
-0.39252
-0.41963
-0.45380
-0.48284
-0.48190
-0.48623
-0.49809
-0.53553
-0.56257
-0.55853
-0.57458
-0.60436
-0.60968
-0.58127
-0.55361
-0.55472
-0.56067
-0.55223
-0.54185
-0.59218
-0.67265
-0.73779
-0.71614
-0.61944
-0.54430
-0.52541
-0.58576
-0.66403
-0.72012
-0.74040
-0.76150
-0.75752
-0.73866
-0.69961
-0.69290
-0.71956
-0.76392
-0.80196
-0.82556
-0.85468
-0.86794
-0.87069
-0.88841
-0.90187
-0.93099
-0.95573
-0.94919
-0.93287
-0.91077
-0.89716
-0.89591
-0.90436
-0.90674
-0.88832
-0.83180
-0.76695
-0.71501
-0.69862
-0.66665
-0.60652
-0.53178
-0.46891
-0.41227
-0.38779
-0.38972
-0.39959
-0.35577
-0.30141
-0.27451
-0.23752
-0.20692
-0.22165
-0.25428
-0.24337
-0.16658
-0.11408
-0.09157
-0.07565
-0.08295
-0.07264
-0.02762
0.08597
0.20207
0.31042
0.45550
0.64275
0.82072
1.01001
1.20610
1.39625
1.55464
1.66901
1.77916
1.84501
1.81602
1.61519
1.17151
0.57849
-0.02008
-0.49026
-0.78108
-0.89158
-0.88731
-0.81566
-0.73358
-0.62562
-0.47338
-0.30483
-0.19455
-0.17674
-0.21525
-0.25713
-0.30011
-0.31144
-0.29329
-0.29388
-0.30922
-0.34940
-0.38960
-0.40748
-0.40919
-0.42940
-0.42154
-0.39109
-0.39157
-0.39413
-0.37991
-0.35144
-0.35950
-0.40229
-0.45736
-0.48509
-0.45164
-0.39571
-0.34193
-0.35663
-0.39834
-0.43384
-0.43478
-0.44705
-0.43516
-0.40341
-0.35483
-0.33592
-0.35296
-0.36436
-0.37857
-0.35580
-0.30817
-0.23087
-0.15388
-0.11652
-0.13576
-0.15015
-0.12482
-0.09404
-0.04895
-0.05247
-0.06392
-0.08562
-0.08002
-0.07008
-0.05945
-0.05174
-0.07530
-0.09752
-0.08224
-0.06786
-0.06190
-0.07839
-0.06468
-0.03150
-0.04865
-0.12719
-0.19300
-0.17685
-0.11690
-0.09474
-0.10972
-0.12514
-0.12508
-0.10682
-0.09295
-0.08864
-0.08693
-0.08193
-0.09308
-0.10547
-0.11306
-0.09209
-0.05795
-0.06419
-0.09102
-0.09394
-0.07129
-0.05551
-0.04317
-0.04363
-0.06251
-0.09450
-0.10813
-0.10868
-0.08887
-0.08898
-0.08857
-0.06537
-0.04081
-0.01828
-0.01981
-0.02980
-0.05425
-0.10407
-0.11775
-0.10712
-0.05207
-0.00806
-0.00775
-0.06031
-0.07732
-0.07180
-0.06387
-0.06303
-0.06846
-0.05834
-0.02692
-0.00528
-0.00579
-0.00638
-0.04600
-0.07548
-0.07672
-0.03277
-0.00668
-0.00006
0.01326
0.02189
0.03951
0.05895
0.09345
0.12044
0.17415
0.21781
0.20240
0.14427
0.16336
0.22301
0.28807
0.31433
0.31019
0.27358
0.25420
0.23897
0.25020
0.25621
0.26492
0.24582
0.18566
0.15745
0.14153
0.11992
0.09159
0.07896
0.07289
0.07943
0.06436
0.01408
-0.02867
-0.02364
0.01165
0.03842
0.02796
0.02864
0.03838
0.07359
0.18582
0.36024
0.58855
0.84691
1.11929
1.40011
1.67429
1.91474
2.02843
2.02530
1.86742
1.49237
0.97685
0.50705
0.20936
0.12125
0.09697
0.06002
-0.01786
-0.07859
-0.08733
-0.08211
-0.11093
-0.13806
-0.14540
-0.15420
-0.13008
-0.08592
-0.08989
-0.13306
-0.18044
-0.18099
-0.14342
-0.16082
-0.20634
-0.22519
-0.19407
-0.14833
-0.12994
-0.15099
-0.18309
-0.21095
-0.23947
-0.22925
-0.19718
-0.19575
-0.21530
-0.24170
-0.26633
-0.30577
-0.34087
-0.33546
-0.32061
-0.34797
-0.40876
-0.48597
-0.50384
-0.47953
-0.46934
-0.49228
-0.53592
-0.56486
-0.56079
-0.53729
-0.52268
-0.49392
-0.47048
-0.43962
-0.43777
-0.43409
-0.38312
-0.34011
-0.31569
-0.28571
-0.22817
-0.16156
-0.12242
-0.09202
-0.05334
-0.03489
-0.01280
0.00535
0.00737
0.03810
0.06407
0.07840
0.08308
0.07281
0.09656
0.10553
0.10841
0.09790
0.12001
0.12940
0.11047
0.10663
0.09638
0.09621
0.11706
0.12205
0.11828
0.10641
0.10116
0.10804
0.12763
0.13027
0.12409
0.14365
0.17918
0.23019
0.27886
0.31939
0.27913
0.21323
0.22723
0.31154
0.38639
0.41596
0.40728
0.34320
0.29852
0.30295
0.32454
0.31643
0.29297
0.26935
0.25385
0.21715
0.14526
0.09939
0.09237
0.10302
0.08947
0.04694
0.03081
0.05323
0.07435
0.08942
0.08194
0.06565
0.06033
0.07115
0.14087
0.28861
0.53355
0.83319
1.09245
1.34634
1.58800
1.80748
1.95390
1.99640
1.92082
1.69028
1.26926
0.76824
0.36184
0.15299
0.11026
0.10272
0.03883
-0.02672
-0.04347
-0.01810
-0.01725
-0.03951
-0.04082
-0.03215
-0.04607
-0.08798
-0.10175
-0.06555
-0.03135
-0.03848
-0.08285
-0.12579
-0.15420
-0.14347
-0.10749
-0.07527
-0.08502
-0.11955
-0.13730
-0.14371
-0.12640
-0.11458
-0.10841
-0.12832
-0.13302
-0.13225
-0.14491
-0.18460
-0.20647
-0.21058
-0.22199
-0.24394
-0.25820
-0.26848
-0.29988
-0.33759
-0.34322
-0.34716
-0.36822
-0.38555
-0.41004
-0.41027
-0.38823
-0.34574
-0.29980
-0.26270
-0.21456
-0.18385
-0.17202
-0.16338
-0.15922
-0.12886
-0.06623
0.00742
0.03213
0.02423
0.03081
0.05171
0.04590
0.04103
0.07420
0.09570
0.11498
0.11627
0.09837
0.07592
0.06270
0.08601
0.09598
0.07175
0.05885
0.06419
0.07656
0.09312
0.09243
0.07443
0.05576
0.05902
0.06352
0.07526
0.08435
0.08052
0.09103
0.10337
0.14462
0.16471
0.18988
0.22148
0.24158
0.26009
0.26470
0.26431
0.29342
0.34166
0.37929
0.38807
0.35235
0.31864
0.30810
0.31398
0.35839
0.33923
0.27496
0.21546
0.21116
0.22674
0.18857
0.10515
0.06531
0.08566
0.11099
0.09771
0.06968
0.05303
0.06100
0.08252
0.08309
0.05346
0.04174
0.04637
0.09934
0.19766
0.36494
0.62886
0.93090
1.20784
1.47305
1.71717
1.89422
1.96297
1.89382
1.61331
1.13757
0.61903
0.25740
0.07208
0.03287
0.03030
0.00999
-0.05103
-0.10983
-0.15952
-0.15458
-0.13162
-0.12146
-0.09671
-0.11579
-0.14274
-0.15445
-0.14372
-0.12143
-0.11402
-0.09920
-0.12610
-0.16379
-0.18501
-0.17994
-0.17457
-0.18600
-0.18458
-0.17714
-0.15886
-0.16530
-0.21040
-0.23594
-0.22236
-0.20664
-0.22557
-0.26763
-0.30000
-0.32678
-0.34828
-0.34612
-0.35420
-0.35496
-0.37910
-0.41584
-0.43752
-0.43962
-0.42324
-0.39506
-0.39424
-0.39072
-0.35845
-0.32337
-0.30135
-0.26888
-0.24322
-0.21301
-0.15289
-0.11076
-0.06835
-0.04874
-0.03730
-0.02422
-0.01102
0.01901
0.03602
0.05403
0.03110
-0.01222
-0.00388
0.04479
0.07342
0.07513
0.05803
0.03547
0.02008
0.01464
0.01352
0.04342
0.04461
0.03853
0.02947
0.03710
0.05298
0.05273
0.06272
0.07276
0.07664
0.05447
0.02930
0.02800
0.07451
0.09392
0.11026
0.12871
0.14015
0.17253
0.22357
0.25827
0.28573
0.30666
0.31816
0.32617
0.29555
0.27416
0.27533
0.29672
0.32040
0.28911
0.23309
0.20106
0.17550
0.14827
0.08901
0.04406
0.02188
0.00905
-0.00811
-0.01242
-0.01118
-0.01134
-0.00708
-0.00635
0.01384
0.02242
0.01929
0.00303
0.01569
0.09838
0.29560
0.54809
0.83385
1.10313
1.35532
1.59890
1.78432
1.90615
1.88693
1.73783
1.39076
0.88439
0.41557
0.12611
0.02360
0.00032
0.01800
0.01916
-0.03215
-0.12498
-0.16485
-0.18104
-0.19020
-0.19354
-0.18515
-0.17619
-0.16540
-0.16463
-0.17092
-0.18251
-0.18220
-0.16338
-0.16660
-0.20871
-0.22179
-0.21885
-0.20439
-0.19687
-0.19246
-0.19711
-0.21256
-0.22863
-0.25090
-0.27825
-0.29145
-0.28938
-0.29205
-0.32191
-0.37425
-0.40009
-0.39444
-0.37075
-0.37045
-0.40626
-0.45120
-0.47054
-0.46264
-0.46442
-0.46275
-0.44750
-0.44918
-0.45942
-0.46179
-0.43647
-0.40378
-0.34274
-0.29599
-0.25367
-0.19364
-0.15234
-0.15100
-0.15461
-0.13654
-0.10038
-0.06254
-0.03058
-0.01163
-0.01489
-0.03057
-0.03527
-0.02437
-0.00407
0.01216
-0.00280
-0.02670
-0.03321
-0.00378
0.01448
0.00476
-0.02261
-0.03855
-0.04232
-0.03184
-0.02193
-0.00140
0.02092
0.00219
-0.01075
-0.02110
-0.01562
0.02902
0.08853
0.10270
0.08441
0.08280
0.08114
0.09914
0.12997
0.15336
0.19978
0.23235
0.27808
0.29846
0.28871
0.26690
0.25276
0.27528
0.30475
0.30880
0.27342
0.21995
0.19430
0.15404
0.10923
0.07625
0.06798
0.07062
0.05842
0.04394
0.02041
-0.00125
-0.02841
-0.03500
-0.01631
0.02571
0.05882
0.06637
0.04033
0.01348
0.06623
0.19793
0.43932
0.71247
0.98436
1.21085
1.41972
1.61075
1.75583
1.80737
1.76739
1.65380
1.39362
0.99877
0.56646
0.25843
0.11755
0.08430
0.07959
0.06338
0.03765
-0.02395
-0.08187
-0.12108
-0.13949
-0.11605
-0.09146
-0.07815
-0.08840
-0.10381
-0.11633
-0.12527
-0.13305
-0.13354
-0.13396
-0.12339
-0.11538
-0.10877
-0.12550
-0.15198
-0.18951
-0.20749
-0.18850
-0.15590
-0.15262
-0.15847
-0.17598
-0.19571
-0.23515
-0.26759
-0.27513
-0.27194
-0.27243
-0.27970
-0.30510
-0.32308
-0.34810
-0.37881
-0.41656
-0.42387
-0.41387
-0.41367
-0.42340
-0.44796
-0.44423
-0.43716
-0.42695
-0.40104
-0.39083
-0.37435
-0.32871
-0.27035
-0.21353
-0.16694
-0.13383
-0.12035
-0.10619
-0.09870
-0.08389
-0.06179
-0.03775
-0.02836
-0.04018
-0.03790
-0.02785
-0.01179
0.01926
0.03776
0.05754
0.09923
0.13316
0.18840
0.26096
0.33881
0.42798
0.55364
0.72509
0.85946
0.85632
0.64045
0.20946
-0.35160
-0.90772
-1.35000
-1.68882
-1.93512
-2.08830
-2.20735
-2.26474
-2.26659
-2.20718
-2.10957
-1.98121
-1.83269
-1.64071
-1.46320
-1.31706
-1.18677
-1.06789
-0.94869
-0.80214
-0.62754
-0.47332
-0.36263
-0.26431
-0.14446
0.01933
0.19812
0.32837
0.39356
0.39279
0.36688
0.33103
0.32991
0.36060
0.39884
0.43412
0.45280
0.47341
0.47512
0.49097
0.52431
0.56039
0.59071
0.61222
0.63376
0.65222
0.67094
0.69457
0.70426
0.73661
0.76902
0.81119
0.85341
0.87496
0.88304
0.88951
0.87716
0.88286
0.90960
0.92187
0.92655
0.90930
0.86889
0.82274
0.77882
0.73744
0.69162
0.66023
0.60339
0.57242
0.52692
0.48428
0.44671
0.39693
0.33712
0.27271
0.25252
0.24272
0.20667
0.16005
0.14329
0.10561
0.07596
0.05868
0.05040
0.03992
0.01929
0.01291
0.00861
0.00294
-0.01198
-0.01794
-0.02013
-0.01824
-0.01399
-0.01519
-0.02256
-0.02880
-0.02772
-0.04288
-0.03545
-0.03985
-0.03532
-0.03495
-0.05850
-0.07308
-0.08180
-0.08880
-0.08531
-0.07980
-0.07715
-0.07100
-0.07285
-0.09492
-0.11531
-0.12588
-0.13535
-0.13312
-0.13059
-0.11790
-0.11359
-0.11372
-0.11799
-0.12651
-0.12918
-0.14417
-0.15609
-0.15139
-0.14048
-0.14068
-0.14712
-0.15511
-0.17561
-0.18168
-0.19907
-0.20894
-0.17941
-0.16938
-0.16509
-0.16606
-0.18029
-0.17742
-0.18954
-0.16919
-0.15487
-0.16714
-0.16407
-0.16751
-0.15520
-0.12961
-0.08952
-0.05971
-0.03250
-0.02324
-0.01828
-0.00281
0.01378
0.04648
0.08412
0.10836
0.08963
0.06080
0.02150
0.01518
0.03134
0.00978
-0.03205
-0.06779
-0.08985
-0.11853
-0.14531
-0.18671
-0.21887
-0.26020
-0.27344
-0.27311
-0.27796
-0.27512
-0.27388
-0.26984
-0.26441
-0.24829
-0.24963
-0.26179
-0.25201
-0.14474
0.05752
0.32716
0.61821
0.88126
1.10969
1.32028
1.44493
1.46020
1.34303
1.08965
0.68616
0.25668
-0.05573
-0.23492
-0.30388
-0.30446
-0.32338
-0.36151
-0.43089
-0.48569
-0.50070
-0.50636
-0.49947
-0.48961
-0.48290
-0.47098
-0.46497
-0.48671
-0.50320
-0.54161
-0.55990
-0.55874
-0.54462
-0.52261
-0.52194
-0.53048
-0.54028
-0.54794
-0.56798
-0.56144
-0.55941
-0.56658
-0.56882
-0.57652
-0.58925
-0.61595
-0.63685
-0.65114
-0.68691
-0.71234
-0.71399
-0.73873
-0.76179
-0.79879
-0.82670
-0.85182
-0.86936
-0.89192
-0.90277
-0.90860
-0.92277
-0.93428
-0.94400
-0.94600
-0.93692
-0.93812
-0.91615
-0.87185
-0.85093
-0.81202
-0.78417
-0.74111
-0.70728
-0.66891
-0.62158
-0.57835
-0.53100
-0.49504
-0.48909
-0.46353
-0.45820
-0.45697
-0.43617
-0.41981
-0.40345
-0.39877
-0.40327
-0.41108
-0.42438
-0.41877
-0.40242
-0.39249
-0.38779
-0.38195
-0.39990
-0.42040
-0.43075
-0.43621
-0.42549
-0.41317
-0.39619
-0.38484
-0.37808
-0.37463
-0.36744
-0.36627
-0.36377
-0.34225
-0.31567
-0.29924
-0.28117
-0.27640
-0.27492
-0.26046
-0.21255
-0.14428
-0.09895
-0.09513
-0.12975
-0.18100
-0.19668
-0.19524
-0.16798
-0.15907
-0.17623
-0.22516
-0.30041
-0.34641
-0.37563
-0.38935
-0.40228
-0.42805
-0.44988
-0.45734
-0.45721
-0.45503
-0.46958
-0.49355
-0.50463
-0.48955
-0.46961
-0.44991
-0.44249
-0.42112
-0.32968
-0.17810
0.07263
0.37759
0.64282
0.87551
1.09767
1.25909
1.34787
1.30935
1.14406
0.83896
0.38872
-0.05263
-0.33325
-0.44193
-0.44537
-0.43956
-0.47501
-0.53814
-0.60142
-0.62938
-0.62953
-0.63281
-0.63428
-0.64350
-0.64708
-0.65538
-0.66570
-0.67397
-0.69238
-0.68159
-0.66753
-0.67329
-0.72573
-0.77146
-0.79051
-0.76656
-0.72365
-0.71820
-0.73648
-0.76422
-0.77946
-0.75165
-0.73040
-0.72926
-0.78153
-0.83714
-0.86294
-0.87595
-0.88232
-0.90953
-0.93450
-0.94913
-0.94114
-0.90661
-0.91068
-0.93239
-0.96273
-0.97966
-1.00472
-1.01604
-1.02073
-1.02422
-0.98561
-0.93375
-0.88167
-0.84766
-0.82804
-0.81460
-0.79609
-0.75845
-0.70533
-0.64771
-0.62719
-0.63856
-0.65747
-0.64920
-0.61861
-0.59672
-0.60941
-0.60972
-0.57897
-0.54146
-0.54799
-0.57905
-0.62999
-0.67030
-0.67332
-0.62893
-0.57782
-0.52992
-0.52244
-0.55208
-0.61449
-0.65591
-0.67320
-0.63699
-0.60429
-0.58574
-0.59639
-0.61553
-0.60375
-0.56460
-0.54485
-0.53285
-0.53009
-0.54834
-0.52536
-0.49529
-0.45439
-0.39850
-0.34237
-0.29414
-0.27604
-0.28462
-0.31778
-0.33774
-0.33887
-0.31064
-0.30860
-0.34229
-0.36833
-0.41218
-0.46757
-0.52141
-0.55229
-0.54178
-0.54976
-0.57482
-0.59811
-0.61981
-0.62096
-0.62752
-0.61063
-0.59378
-0.58515
-0.58872
-0.57915
-0.53164
-0.40606
-0.19227
0.05693
0.31657
0.56723
0.80543
1.05922
1.23987
1.27451
1.19039
0.95885
0.59248
0.17358
-0.18993
-0.44147
-0.54770
-0.57899
-0.58867
-0.63621
-0.70820
-0.75745
-0.76279
-0.74101
-0.73212
-0.72486
-0.72458
-0.73630
-0.73740
-0.75903
-0.77513
-0.78620
-0.77833
-0.72927
-0.69266
-0.67162
-0.70820
-0.76314
-0.80020
-0.77431
-0.74879
-0.73429
-0.73205
-0.77328
-0.78478
-0.77944
-0.79041
-0.81180
-0.83453
-0.85760
-0.86354
-0.86284
-0.86703
-0.90312
-0.93163
-0.94165
-0.96533
-0.96121
-0.94566
-0.92598
-0.90529
-0.93959
-1.01950
-1.06141
-1.04958
-0.99400
-0.93049
-0.88300
-0.87304
-0.87239
-0.86622
-0.83837
-0.77952
-0.71313
-0.67314
-0.63525
-0.58868
-0.57052
-0.56025
-0.56639
-0.59146
-0.58698
-0.55018
-0.52858
-0.54079
-0.56922
-0.57941
-0.55941
-0.52266
-0.46331
-0.38242
-0.31744
-0.26743
-0.23979
-0.18932
-0.06431
0.08686
0.23181
0.28497
0.23319
0.07264
-0.20031
-0.60083
-1.00123
-1.34328
-1.60629
-1.80777
-1.99018
-2.18418
-2.35427
-2.44410
-2.47137
-2.43747
-2.35454
-2.20365
-2.00944
-1.80917
-1.67206
-1.61913
-1.59820
-1.52383
-1.38435
-1.17550
-1.02637
-0.93637
-0.88008
-0.84051
-0.76053
-0.60722
-0.44138
-0.31149
-0.24479
-0.23619
-0.25069
-0.26582
-0.26257
-0.26642
-0.26210
-0.26930
-0.27072
-0.25080
-0.19132
-0.11966
-0.08025
-0.08999
-0.12676
-0.13402
-0.10848
-0.04895
-0.01126
0.02300
0.07421
0.10230
0.09812
0.09544
0.09725
0.12374
0.15392
0.20117
0.25687
0.29485
0.28062
0.26995
0.23301
0.19531
0.19830
0.20038
0.21893
0.19627
0.14882
0.06463
0.00015
-0.04001
-0.06681
-0.10892
-0.18571
-0.23979
-0.27649
-0.30879
-0.34889
-0.41061
-0.46580
-0.49826
-0.52828
-0.52267
-0.54102
-0.56100
-0.56776
-0.60670
-0.61123
-0.62105
-0.60732
-0.58181
-0.56799
-0.56977
-0.59107
-0.61685
-0.62279
-0.63465
-0.61989
-0.60699
-0.57047
-0.54081
-0.56060
-0.60058
-0.63952
-0.63528
-0.59699
-0.56000
-0.55563
-0.58523
-0.63895
-0.70233
-0.69266
-0.63184
-0.58367
-0.55662
-0.57485
-0.59301
-0.61424
-0.61921
-0.64590
-0.64383
-0.62886
-0.61724
-0.61283
-0.60552
-0.58733
-0.63436
-0.67998
-0.68264
-0.63702
-0.60058
-0.58143
-0.58573
-0.61445
-0.65261
-0.66621
-0.66222
-0.64435
-0.61317
-0.61311
-0.61455
-0.60353
-0.58146
-0.56133
-0.54440
-0.50762
-0.46283
-0.44853
-0.46389
-0.48086
-0.45997
-0.38307
-0.30826
-0.26709
-0.26572
-0.34742
-0.39031
-0.38136
-0.34310
-0.32310
-0.35458
-0.39828
-0.43097
-0.45283
-0.46400
-0.51468
-0.57581
-0.58383
-0.54546
-0.53894
-0.60065
-0.63868
-0.64513
-0.63583
-0.63425
-0.62361
-0.57812
-0.57267
-0.56292
-0.52991
-0.40023
-0.14220
0.17444
0.49428
0.78925
1.05888
1.25377
1.35314
1.32716
1.15501
0.82753
0.37539
-0.06202
-0.36069
-0.51948
-0.55879
-0.57218
-0.58203
-0.59839
-0.66487
-0.77569
-0.82685
-0.80899
-0.76086
-0.73777
-0.76426
-0.80482
-0.82612
-0.80616
-0.77281
-0.75944
-0.77943
-0.78697
-0.79355
-0.79917
-0.79063
-0.78769
-0.77251
-0.77907
-0.78985
-0.77085
-0.77250
-0.82479
-0.86230
-0.87167
-0.85323
-0.83055
-0.84887
-0.89843
-0.92115
-0.92606
-0.93265
-0.92541
-0.96098
-0.99845
-1.05302
-1.10667
-1.12674
-1.10335
-1.06368
-1.03162
-1.05858
-1.12452
-1.15344
-1.11514
-1.06303
-1.02678
-1.01025
-0.98316
-0.96007
-0.97391
-0.95554
-0.89122
-0.81917
-0.76897
-0.74274
-0.70659
-0.66970
-0.63236
-0.59605
-0.56407
-0.52461
-0.47712
-0.43696
-0.49078
-0.56683
-0.55604
-0.48882
-0.41439
-0.38511
-0.42857
-0.51420
-0.53050
-0.48137
-0.42263
-0.40308
-0.41107
-0.42775
-0.44337
-0.45890
-0.48808
-0.47662
-0.43245
-0.39530
-0.38479
-0.38227
-0.38302
-0.35756
-0.32950
-0.29929
-0.25753
-0.23769
-0.21707
-0.19478
-0.18543
-0.16866
-0.13931
-0.15223
-0.15579
-0.15106
-0.15087
-0.17342
-0.20855
-0.21527
-0.25792
-0.31741
-0.34998
-0.33906
-0.33208
-0.35457
-0.40881
-0.43545
-0.44726
-0.44509
-0.45077
-0.42834
-0.42263
-0.41648
-0.40404
-0.40839
-0.41696
-0.40065
-0.28464
-0.07590
0.19303
0.48304
0.72585
0.95124
1.22229
1.48899
1.66327
1.69090
1.56423
1.26459
0.81208
0.36672
0.03716
-0.15255
-0.22686
-0.25380
-0.28237
-0.34378
-0.41450
-0.46334
-0.46824
-0.47190
-0.46590
-0.48796
-0.50040
-0.50681
-0.51612
-0.51448
-0.51985
-0.52015
-0.51945
-0.51325
-0.50207
-0.49729
-0.47903
-0.49564
-0.52121
-0.53906
-0.55605
-0.52442
-0.49357
-0.48663
-0.49895
-0.54887
-0.57903
-0.59617
-0.60068
-0.59292
-0.59858
-0.60475
-0.60982
-0.62095
-0.60970
-0.61796
-0.64769
-0.69465
-0.72621
-0.73353
-0.71727
-0.70526
-0.70164
-0.72434
-0.74455
-0.71316
-0.65069
-0.58792
-0.54400
-0.52800
-0.49752
-0.47288
-0.43269
-0.41501
-0.37597
-0.33693
-0.30515
-0.28630
-0.28870
-0.28392
-0.28581
-0.28386
-0.28719
-0.28353
-0.27916
-0.28413
-0.26378
-0.23655
-0.22817
-0.22741
-0.24932
-0.25632
-0.24185
-0.23236
-0.24050
-0.25417
-0.26494
-0.26217
-0.26049
-0.27487
-0.29565
-0.28776
-0.24839
-0.22545
-0.21762
-0.23127
-0.25316
-0.24364
-0.21532
-0.18775
-0.15301
-0.12762
-0.10165
-0.11788
-0.13952
-0.13617
-0.08020
0.00949
0.07464
0.08682
0.03331
-0.02567
-0.04743
-0.03731
-0.01402
-0.00707
-0.03468
-0.06345
-0.11006
-0.16428
-0.20885
-0.23736
-0.24796
-0.25291
-0.26163
-0.28566
-0.31488
-0.30400
-0.29750
-0.29355
-0.29069
-0.29681
-0.30829
-0.31259
-0.29712
-0.24797
-0.16600
-0.02472
0.17833
0.41713
0.68665
0.95474
1.25615
1.54410
1.72289
1.74581
1.62760
1.34242
0.91214
0.49294
0.15500
-0.07920
-0.20975
-0.25313
-0.26390
-0.29406
-0.35353
-0.42409
-0.45642
-0.45296
-0.45267
-0.46234
-0.46212
-0.46349
-0.44932
-0.44953
-0.46617
-0.46421
-0.45396
-0.45399
-0.48939
-0.51280
-0.50311
-0.49382
-0.48724
-0.50489
-0.52171
-0.52057
-0.52761
-0.54275
-0.55145
-0.54303
-0.54494
-0.53100
-0.54573
-0.58196
-0.61098
-0.62004
-0.64351
-0.66083
-0.70590
-0.70879
-0.68984
-0.69201
-0.69397
-0.72000
-0.74723
-0.75347
-0.73958
-0.68708
-0.66106
-0.64690
-0.65287
-0.65552
-0.62525
-0.57489
-0.52549
-0.48725
-0.44354
-0.41283
-0.40715
-0.38735
-0.36679
-0.32610
-0.29505
-0.26302
-0.25621
-0.27783
-0.29079
-0.29668
-0.28225
-0.27935
-0.28767
-0.29272
-0.26354
-0.26376
-0.28328
-0.28626
-0.27839
-0.28013
-0.28299
-0.28384
-0.28962
-0.27716
-0.28464
-0.28568
-0.29701
-0.28681
-0.27605
-0.26526
-0.24769
-0.22773
-0.19705
-0.17722
-0.16697
-0.17876
-0.16410
-0.14934
-0.11203
-0.07421
-0.02384
0.00521
-0.01060
-0.05028
-0.07054
-0.06964
-0.06217
-0.05339
-0.08101
-0.10948
-0.16534
-0.22656
-0.23231
-0.24372
-0.24239
-0.27619
-0.30725
-0.31645
-0.31335
-0.30759
-0.29364
-0.28258
-0.27947
-0.30101
-0.30749
-0.29657
-0.29113
-0.21865
-0.03441
0.23317
0.54322
0.80789
1.08073
1.36166
1.58929
1.69305
1.64936
1.49129
1.19672
0.78371
0.33402
0.01030
-0.15157
-0.20392
-0.23630
-0.25422
-0.32435
-0.38387
-0.42731
-0.44867
-0.42289
-0.39560
-0.39529
-0.44510
-0.49390
-0.50727
-0.48278
-0.49080
-0.49742
-0.51144
-0.49355
-0.44493
-0.44771
-0.49154
-0.50050
-0.47704
-0.46218
-0.46322
-0.49437
-0.50646
-0.50818
-0.50257
-0.50281
-0.52098
-0.57330
-0.63559
-0.63345
-0.57972
-0.54235
-0.55949
-0.58338
-0.60444
-0.64184
-0.67923
-0.70639
-0.72707
-0.73105
-0.71215
-0.72681
-0.73363
-0.72831
-0.72648
-0.72025
-0.72348
-0.72804
-0.69476
-0.64725
-0.60172
-0.57876
-0.53227
-0.49970
-0.46017
-0.41729
-0.39372
-0.37184
-0.34511
-0.33811
-0.31398
-0.28160
-0.25870
-0.24260
-0.26573
-0.27430
-0.28928
-0.29374
-0.28817
-0.28631
-0.27207
-0.25143
-0.22790
-0.23224
-0.25633
-0.28131
-0.26068
-0.23645
-0.22665
-0.26363
-0.29071
-0.29743
-0.26817
-0.25611
-0.23541
-0.22565
-0.22686
-0.21395
-0.17925
-0.15700
-0.13030
-0.12194
-0.12333
-0.09513
-0.04960
-0.00545
0.03309
0.01163
-0.03369
-0.06323
-0.05441
-0.04677
-0.04943
-0.05772
-0.10148
-0.14068
-0.17314
-0.21826
-0.24604
-0.26660
-0.27905
-0.27564
-0.27839
-0.30428
-0.33412
-0.35767
-0.35579
-0.33032
-0.30688
-0.26993
-0.26183
-0.26070
-0.20025
-0.04077
0.23563
0.58314
0.91357
1.19397
1.44803
1.63326
1.69650
1.63687
1.42879
1.04110
0.54796
0.14224
-0.10185
-0.20513
-0.22141
-0.21167
-0.29264
-0.40979
-0.46785
-0.44152
-0.40055
-0.37548
-0.37127
-0.37892
-0.39396
-0.43535
-0.49076
-0.46734
-0.40379
-0.39073
-0.41870
-0.45844
-0.47066
-0.46116
-0.45303
-0.43602
-0.45815
-0.49281
-0.51379
-0.51740
-0.51965
-0.51676
-0.51703
-0.53337
-0.56661
-0.59267
-0.60544
-0.62348
-0.65579
-0.69363
-0.71662
-0.71235
-0.68390
-0.68394
-0.68436
-0.69775
-0.71448
-0.70639
-0.67815
-0.62981
-0.57968
-0.55815
-0.54151
-0.51155
-0.43775
-0.36722
-0.34227
-0.34799
-0.34006
-0.29983
-0.25652
-0.21958
-0.22083
-0.23991
-0.24848
-0.25096
-0.24434
-0.23248
-0.22285
-0.21673
-0.21903
-0.21697
-0.20002
-0.20243
-0.21900
-0.21958
-0.22783
-0.20508
-0.19141
-0.20313
-0.20414
-0.17102
-0.13333
-0.09299
-0.05710
-0.00235
0.02724
0.08202
0.17008
0.28862
0.44864
0.64522
0.86502
1.03180
1.04862
0.81579
0.28015
-0.42761
-1.05997
-1.50809
-1.82529
-2.05485
-2.23286
-2.34039
-2.36797
-2.33878
-2.25151
-2.12078
-1.92060
-1.72109
-1.57879
-1.56414
-1.57860
-1.51527
-1.35091
-1.14459
-0.95846
-0.87276
-0.84004
-0.78032
-0.65715
-0.45988
-0.23483
-0.02861
0.10848
0.17778
0.20738
0.24819
0.28278
0.31631
0.31804
0.31199
0.32161
0.36212
0.40296
0.44934
0.47627
0.48244
0.50523
0.53858
0.57520
0.60553
0.63729
0.67396
0.73172
0.77931
0.80203
0.82450
0.84906
0.88525
0.93695
0.95807
0.96799
0.96819
0.95558
0.93971
0.92387
0.89787
0.87269
0.81706
0.73714
0.67322
0.63131
0.60657
0.56086
0.49836
0.39890
0.33877
0.30102
0.27617
0.25328
0.21829
0.16876
0.09599
0.06087
0.02568
-0.02244
-0.02103
-0.02773
-0.05998
-0.08292
-0.11527
-0.14011
-0.13002
-0.11646
-0.10110
-0.11375
-0.14705
-0.17913
-0.18021
-0.14359
-0.12750
-0.12220
-0.09920
-0.08965
-0.10173
-0.15053
-0.18960
-0.18673
-0.15018
-0.11059
-0.11539
-0.13800
-0.18292
-0.20599
-0.21771
-0.21046
-0.19366
-0.19231
-0.19912
-0.20080
-0.19610
-0.19504
-0.19681
-0.21342
-0.21275
-0.20170
-0.17775
-0.17803
-0.17380
-0.17130
-0.15573
-0.17860
-0.19509
-0.22497
-0.22736
-0.22309
-0.22472
-0.19286
-0.16976
-0.15671
-0.13647
-0.11730
-0.07406
-0.02854
0.01460
0.02385
0.02121
0.03341
0.05999
0.07408
0.07102
0.06171
0.06382
0.04506
0.03065
0.03544
0.05902
0.04010
-0.02506
-0.07542
-0.11759
-0.13293
-0.15671
-0.19115
-0.23395
-0.25524
-0.26109
-0.26778
-0.27985
-0.27338
-0.24854
-0.22014
-0.21000
-0.24161
-0.29158
-0.28145
-0.22830
-0.11249
0.06663
0.34474
0.64723
0.95124
1.22230
1.46456
1.64832
1.72705
1.68135
1.44095
1.03256
0.53053
0.10197
-0.13075
-0.22940
-0.24712
-0.27026
-0.31674
-0.37472
-0.43911
-0.49443
-0.50578
-0.50482
-0.48727
-0.46314
-0.46139
-0.48967
-0.52260
-0.56527
-0.55802
-0.54644
-0.51394
-0.51043
-0.53160
-0.53152
-0.50677
-0.49373
-0.53923
-0.57060
-0.56942
-0.54533
-0.53494
-0.55524
-0.58450
-0.61467
-0.63771
-0.63561
-0.63316
-0.64344
-0.67100
-0.70296
-0.75087
-0.78360
-0.81019
-0.81941
-0.83615
-0.84585
-0.87264
-0.90509
-0.92552
-0.93518
-0.94124
-0.94178
-0.95876
-0.94172
-0.89432
-0.86374
-0.89080
-0.91085
-0.86699
-0.78545
-0.70513
-0.67160
-0.64666
-0.61881
-0.58156
-0.52642
-0.47534
-0.45877
-0.46125
-0.44983
-0.40657
-0.35113
-0.32167
-0.34194
-0.40065
-0.40483
-0.38904
-0.35288
-0.33876
-0.36035
-0.37488
-0.37563
-0.37300
-0.37028
-0.37401
-0.38573
-0.35702
-0.34815
