-0.16967
-0.20912
-0.19564
-0.20230
-0.19960
-0.19667
-0.18355
-0.18970
-0.20322
-0.20998
-0.19231
-0.18297
-0.17796
-0.16901
-0.16822
-0.18280
-0.19132
-0.20909
-0.22953
-0.21760
-0.21135
-0.19881
-0.20844
-0.21636
-0.22868
-0.23774
-0.25282
-0.25396
-0.23541
-0.24291
-0.24407
-0.25367
-0.25798
-0.26130
-0.26450
-0.27095
-0.26342
-0.27318
-0.26846
-0.26978
-0.27636
-0.28153
-0.28332
-0.27777
-0.27240
-0.26689
-0.26339
-0.26983
-0.28417
-0.27770
-0.29031
-0.29048
-0.29386
-0.28807
-0.28214
-0.27427
-0.28109
-0.27753
-0.28968
-0.29245
-0.29903
-0.29206
-0.29058
-0.28084
-0.27744
-0.28392
-0.29696
-0.30406
-0.29694
-0.29377
-0.28213
-0.28476
-0.26964
-0.28325
-0.28047
-0.27372
-0.26611
-0.25768
-0.22362
-0.20453
-0.19880
-0.18339
-0.18023
-0.15187
-0.13313
-0.09909
-0.09799
-0.10229
-0.12039
-0.12796
-0.14948
-0.16868
-0.19040
-0.20533
-0.22164
-0.24725
-0.25994
-0.28572
-0.28910
-0.30301
-0.31052
-0.31482
-0.31891
-0.30654
-0.29928
-0.29908
-0.29439
-0.29540
-0.30494
-0.31839
-0.31391
-0.30380
-0.28766
-0.28732
-0.29126
-0.30893
-0.34130
-0.39899
-0.49476
-0.55536
-0.49700
-0.23016
0.24210
0.80557
1.29126
1.51811
1.33055
0.73550
0.04137
-0.37877
-0.50200
-0.47006
-0.49001
-0.61411
-0.77860
-0.95844
-1.05724
-1.08901
-1.04980
-0.98087
-0.86094
-0.74927
-0.62345
-0.50890
-0.41753
-0.35132
-0.32657
-0.31629
-0.31270
-0.30170
-0.29885
-0.30297
-0.29134
-0.26328
-0.24080
-0.24666
-0.24748
-0.24779
-0.24844
-0.25954
-0.24086
-0.22646
-0.21664
-0.20524
-0.21273
-0.20545
-0.21437
-0.21297
-0.20557
-0.19662
-0.18218
-0.17288
-0.17259
-0.17202
-0.17540
-0.15936
-0.15736
-0.14737
-0.12389
-0.10839
-0.08997
-0.08228
-0.07647
-0.07709
-0.07271
-0.05286
-0.04473
-0.01246
0.00009
0.01102
0.01109
0.03102
0.03972
0.05551
0.08387
0.10598
0.13218
0.15620
0.17421
0.17699
0.19417
0.20955
0.21831
0.23949
0.26495
0.28206
0.28335
0.28848
0.28730
0.29397
0.30033
0.31713
0.32635
0.32345
0.31899
0.31143
0.29115
0.26813
0.24145
0.22744
0.19265
0.18216
0.14154
0.11106
0.08264
0.04327
0.01393
-0.01565
-0.02749
-0.03639
-0.05814
-0.06969
-0.09930
-0.12972
-0.14027
-0.14517
-0.15076
-0.14297
-0.14251
-0.15234
-0.16350
-0.17753
-0.18197
-0.17335
-0.16810
-0.16763
-0.15017
-0.15294
-0.16278
-0.17226
-0.18137
-0.18619
-0.17062
-0.16157
-0.15923
-0.16002
-0.16480
-0.17783
-0.18668
-0.19255
-0.18236
-0.18087
-0.16817
-0.15845
-0.17468
-0.17711
-0.19395
-0.20468
-0.21860
-0.21347
-0.20882
-0.21217
-0.21468
-0.21247
-0.22273
-0.22684
-0.22720
-0.22923
-0.23183
-0.20766
-0.21982
-0.21680
-0.22015
-0.23577
-0.24452
-0.23010
-0.22762
-0.21814
-0.20765
-0.22791
-0.23262
-0.22713
-0.25024
-0.23691
-0.22990
-0.22652
-0.22395
-0.21784
-0.22592
-0.23562
-0.23670
-0.24145
-0.23598
-0.22525
-0.20953
-0.20671
-0.21072
-0.21302
-0.22254
-0.23254
-0.23271
-0.22330
-0.21599
-0.20705
-0.20665
-0.19998
-0.19121
-0.19028
-0.18239
-0.17596
-0.15038
-0.13954
-0.11933
-0.09323
-0.07482
-0.04962
-0.04558
-0.05462
-0.06858
-0.08130
-0.09371
-0.10241
-0.09778
-0.11905
-0.15398
-0.17653
-0.19504
-0.21243
-0.21987
-0.23795
-0.24352
-0.25358
-0.26599
-0.26336
-0.26537
-0.27521
-0.27310
-0.27015
-0.27771
-0.27738
-0.27668
-0.26452
-0.25638
-0.25146
-0.24681
-0.24882
-0.25130
-0.27552
-0.31903
-0.38441
-0.48059
-0.49908
-0.32902
0.10478
0.70105
1.27120
1.59103
1.41756
0.73495
-0.03800
-0.49152
-0.58828
-0.53826
-0.53592
-0.62642
-0.79273
-0.97771
-1.06373
-1.05172
-0.95310
-0.82816
-0.70077
-0.57896
-0.46431
-0.38695
-0.32986
-0.28865
-0.25718
-0.23075
-0.23357
-0.21742
-0.21989
-0.22516
-0.21564
-0.20450
-0.18449
-0.17341
-0.17308
-0.17352
-0.17669
-0.18877
-0.19282
-0.18789
-0.16957
-0.15452
-0.15715
-0.14302
-0.15755
-0.15842
-0.15129
-0.15818
-0.13058
-0.11485
-0.09276
-0.07810
-0.07620
-0.08317
-0.09502
-0.09258
-0.07043
-0.04914
-0.02465
-0.01622
-0.01535
-0.02340
-0.02066
-0.00345
0.01527
0.03637
0.05183
0.07497
0.09454
0.09643
0.11654
0.12760
0.14195
0.15754
0.18395
0.21743
0.23165
0.24145
0.23959
0.24662
0.24403
0.28309
0.30209
0.30688
0.31429
0.31643
0.32694
0.33025
0.33822
0.33642
0.34854
0.35574
0.34559
0.34214
0.31741
0.28152
0.24564
0.22801
0.19864
0.19739
0.17759
0.14718
0.10741
0.06645
0.02481
-0.00904
-0.01559
-0.03172
-0.03084
-0.06437
-0.08922
-0.11976
-0.14820
-0.16238
-0.15085
-0.15338
-0.16356
-0.15771
-0.15479
-0.17282
-0.17562
-0.17814
-0.17646
-0.18525
-0.17396
-0.15714
-0.16301
-0.16161
-0.18423
-0.18728
-0.17512
-0.16396
-0.15136
-0.14853
-0.16266
-0.15793
-0.17522
-0.17162
-0.18135
-0.18888
-0.19410
-0.18997
-0.17895
-0.16013
-0.15384
-0.17072
-0.20438
-0.20528
-0.20073
-0.18132
-0.16615
-0.17142
-0.19457
-0.21940
-0.23344
-0.21854
-0.19807
-0.19811
-0.19797
-0.20872
-0.22447
-0.22229
-0.22725
-0.21455
-0.19764
-0.19479
-0.21350
-0.21015
-0.22461
-0.22678
-0.22270
-0.21440
-0.21983
-0.22149
-0.21078
-0.21614
-0.20953
-0.21271
-0.21601
-0.20271
-0.18813
-0.14531
-0.12334
-0.10549
-0.11237
-0.11234
-0.10038
-0.05374
-0.03235
-0.03113
-0.03081
-0.04640
-0.06077
-0.08248
-0.10838
-0.13234
-0.15825
-0.18179
-0.20751
-0.23439
-0.24744
-0.24756
-0.24843
-0.25962
-0.27150
-0.27397
-0.26105
-0.25154
-0.24540
-0.23807
-0.25080
-0.24615
-0.24741
-0.25896
-0.25750
-0.26330
-0.24917
-0.24012
-0.26192
-0.35929
-0.45962
-0.44010
-0.17519
0.36782
0.99075
1.47128
1.48866
0.90031
0.05282
-0.52197
-0.69750
-0.65444
-0.60390
-0.65305
-0.78519
-0.91288
-0.97324
-0.97010
-0.92972
-0.83543
-0.71929
-0.58253
-0.46045
-0.36037
-0.29996
-0.26847
-0.26581
-0.23356
-0.21596
-0.19656
-0.18403
-0.17831
-0.16854
-0.18239
-0.18221
-0.17915
-0.16808
-0.16115
-0.14194
-0.13662
-0.14195
-0.13587
-0.14453
-0.14736
-0.12958
-0.11405
-0.10267
-0.09411
-0.09834
-0.10394
-0.09948
-0.10370
-0.09105
-0.08595
-0.08333
-0.06329
-0.04657
-0.03674
-0.04365
-0.05175
-0.04675
-0.01793
-0.00882
0.00602
0.00776
0.00089
0.02551
0.03521
0.02641
0.04422
0.06077
0.07096
0.08459
0.09301
0.10690
0.10309
0.12115
0.11540
0.14214
0.16671
0.17864
0.19973
0.19712
0.19875
0.20197
0.21119
0.23305
0.25188
0.26122
0.27159
0.28073
0.29043
0.29607
0.28686
0.28503
0.27934
0.28146
0.27005
0.24850
0.22287
0.18288
0.15811
0.13506
0.10833
0.09047
0.06028
0.02509
0.01809
-0.01894
-0.04662
-0.07350
-0.10748
-0.10986
-0.11341
-0.13092
-0.14064
-0.14856
-0.15295
-0.15302
-0.15087
-0.14445
-0.12886
-0.13584
-0.13509
-0.13705
-0.14325
-0.14603
-0.13943
-0.12372
-0.11036
-0.11011
-0.10994
-0.12164
-0.12520
-0.13560
-0.13260
-0.12401
-0.11924
-0.10192
-0.11377
-0.12043
-0.13556
-0.15529
-0.16336
-0.14754
-0.13983
-0.13624
-0.14283
-0.16154
-0.17369
-0.19131
-0.19312
-0.18856
-0.18395
-0.18581
-0.18196
-0.19223
-0.19425
-0.20897
-0.21748
-0.21537
-0.21236
-0.21132
-0.20947
-0.20490
-0.21571
-0.21887
-0.23895
-0.23397
-0.23928
-0.22647
-0.21683
-0.22489
-0.20632
-0.22495
-0.23617
-0.22445
-0.21683
-0.20394
-0.17769
-0.16825
-0.18128
-0.17186
-0.15772
-0.14666
-0.12497
-0.09243
-0.05246
-0.02748
-0.02399
-0.04759
-0.07765
-0.09247
-0.12209
-0.14199
-0.14829
-0.16300
-0.19102
-0.21140
-0.24754
-0.25846
-0.25757
-0.25568
-0.25176
-0.24737
-0.25088
-0.25718
-0.26222
-0.27476
-0.27275
-0.27241
-0.27007
-0.25541
-0.25469
-0.26422
-0.26705
-0.27904
-0.29618
-0.31832
-0.35954
-0.44870
-0.52193
-0.46376
-0.16656
0.31653
0.88983
1.38609
1.53009
1.20244
0.49780
-0.15491
-0.46488
-0.53003
-0.53010
-0.61025
-0.76856
-0.93537
-1.03891
-1.05250
-1.00790
-0.89973
-0.77607
-0.63661
-0.51346
-0.41469
-0.34446
-0.30862
-0.29793
-0.28245
-0.28458
-0.27855
-0.26571
-0.26229
-0.24997
-0.23112
-0.22283
-0.21606
-0.21988
-0.22247
-0.23565
-0.23481
-0.21212
-0.19501
-0.18830
-0.18561
-0.17808
-0.19162
-0.19279
-0.19055
-0.17087
-0.15180
-0.14151
-0.14070
-0.14170
-0.12881
-0.12607
-0.11491
-0.10552
-0.09620
-0.06984
-0.06466
-0.05153
-0.04470
-0.04127
-0.03599
-0.01680
0.00030
0.01666
0.03258
0.04279
0.06046
0.06187
0.07799
0.10255
0.12737
0.15092
0.17597
0.18990
0.20704
0.20572
0.21927
0.23811
0.25124
0.26299
0.28514
0.29688
0.31181
0.31420
0.31445
0.32059
0.31182
0.33165
0.34583
0.35664
0.35150
0.33980
0.31995
0.29293
0.27927
0.25800
0.24489
0.23591
0.20419
0.16956
0.12878
0.09808
0.05993
0.04393
0.02714
0.00937
-0.00822
-0.03274
-0.05877
-0.09187
-0.10955
-0.12743
-0.13360
-0.14811
-0.14884
-0.13414
-0.14797
-0.15351
-0.17146
-0.18074
-0.17914
-0.17840
-0.14968
-0.16018
-0.15020
-0.16424
-0.16411
-0.17438
-0.17084
-0.16749
-0.16368
-0.14445
-0.13750
-0.14942
-0.14387
-0.15445
-0.16358
-0.14989
-0.14361
-0.13895
-0.15540
-0.16576
-0.16230
-0.16597
-0.16398
-0.16964
-0.16831
-0.15991
-0.17222
-0.16352
-0.17193
-0.19100
-0.19902
-0.19504
-0.19440
-0.18526
-0.18215
-0.17932
-0.19200
-0.20274
-0.21083
-0.21456
-0.21846
-0.20610
-0.19333
-0.19558
-0.19622
-0.20859
-0.21807
-0.22243
-0.22644
-0.22559
-0.20871
-0.20904
-0.21235
-0.21478
-0.23124
-0.23223
-0.22554
-0.21872
-0.20811
-0.19915
-0.20083
-0.21588
-0.21234
-0.21817
-0.22055
-0.20982
-0.19142
-0.17835
-0.17521
-0.16833
-0.15923
-0.15980
-0.15321
-0.14111
-0.12204
-0.10124
-0.06951
-0.04807
-0.03065
-0.03184
-0.04686
-0.05464
-0.06349
-0.06267
-0.07930
-0.09080
-0.11208
-0.15218
-0.17716
-0.20492
-0.22869
-0.23854
-0.22909
-0.22916
-0.23594
-0.24250
-0.25019
-0.24931
-0.24867
-0.24897
-0.23639
-0.23204
-0.23882
-0.24961
-0.24812
-0.25855
-0.25336
-0.23984
-0.23561
-0.23495
-0.23770
-0.26623
-0.32752
-0.40070
-0.48884
-0.52320
-0.39298
-0.07108
0.39777
0.93286
1.37275
1.55012
1.30421
0.68145
0.02951
-0.34996
-0.45175
-0.43071
-0.44509
-0.57569
-0.75679
-0.93585
-1.03641
-1.05017
-1.01586
-0.93117
-0.82272
-0.69871
-0.57902
-0.46182
-0.37407
-0.30823
-0.27115
-0.26101
-0.24632
-0.24153
-0.24724
-0.24521
-0.23550
-0.22087
-0.20967
-0.19678
-0.19556
-0.20727
-0.20776
-0.22175
-0.20092
-0.17521
-0.14604
-0.14324
-0.14686
-0.13514
-0.14413
-0.14518
-0.13863
-0.14163
-0.12665
-0.11999
-0.11747
-0.10400
-0.10017
-0.09054
-0.07044
-0.07497
-0.05802
-0.04001
-0.03895
-0.03459
-0.03018
-0.02073
-0.00371
0.00315
0.02468
0.06440
0.07373
0.09377
0.09795
0.11559
0.11525
0.14137
0.16744
0.19083
0.21240
0.22730
0.21315
0.23891
0.25995
0.26499
0.28581
0.30213
0.31861
0.32501
0.33916
0.35673
0.36615
0.36850
0.40152
0.40530
0.41275
0.41228
0.38770
0.36618
0.31749
0.27611
0.25865
0.24882
0.23815
0.22854
0.18297
0.13633
0.09029
0.04572
0.01488
0.00571
-0.00291
0.00382
-0.01859
-0.05684
-0.08244
-0.09636
-0.09407
-0.09736
-0.10073
-0.10528
-0.12277
-0.15381
-0.15670
-0.16567
-0.17870
-0.16382
-0.15591
-0.13245
-0.11512
-0.11599
-0.12057
-0.14664
-0.16221
-0.16192
-0.15474
-0.13928
-0.12696
-0.12473
-0.13401
-0.16021
-0.15563
-0.16234
-0.15519
-0.14604
-0.14977
-0.15004
-0.15045
-0.16069
-0.17105
-0.17655
-0.18625
-0.19191
-0.17996
-0.18073
-0.17668
-0.17508
-0.18353
-0.19177
-0.18550
-0.18960
-0.17904
-0.17267
-0.19036
-0.18259
-0.19755
-0.22200
-0.22786
-0.23331
-0.21838
-0.21677
-0.21036
-0.20258
-0.20013
-0.19209
-0.18484
-0.19519
-0.20023
-0.20189
-0.18988
-0.20033
-0.19227
-0.18416
-0.15817
-0.13475
-0.12321
-0.11590
-0.11744
-0.11008
-0.10029
-0.06977
-0.05493
-0.04335
-0.03553
-0.02180
-0.02183
-0.05354
-0.07608
-0.09603
-0.12280
-0.16280
-0.18589
-0.21184
-0.23210
-0.22471
-0.21400
-0.20678
-0.21625
-0.24322
-0.26610
-0.26453
-0.25698
-0.22648
-0.22279
-0.23096
-0.25477
-0.26885
-0.26886
-0.25119
-0.23695
-0.21787
-0.22373
-0.22799
-0.27072
-0.35908
-0.46327
-0.46943
-0.25273
0.20578
0.79932
1.32666
1.57506
1.31259
0.56692
-0.20163
-0.61070
-0.64954
-0.57657
-0.57422
-0.66134
-0.82833
-0.94630
-0.99674
-0.98438
-0.89422
-0.75774
-0.61238
-0.48768
-0.39508
-0.32222
-0.27907
-0.24696
-0.22151
-0.20467
-0.18697
-0.18180
-0.19062
-0.19854
-0.19417
-0.17466
-0.14841
-0.12298
-0.11489
-0.12144
-0.14239
-0.15672
-0.17014
-0.14611
-0.10907
-0.08241
-0.07094
-0.07241
-0.09640
-0.11271
-0.12143
-0.11109
-0.08623
-0.06723
-0.02921
-0.00877
-0.01430
-0.02200
-0.02582
-0.02518
-0.00624
-0.00495
0.00868
0.04074
0.07270
0.09471
0.08512
0.06862
0.06880
0.07710
0.09338
0.12056
0.14881
0.16545
0.18184
0.19012
0.19755
0.20450
0.22001
0.24237
0.26867
0.28525
0.28358
0.29091
0.30281
0.31467
0.34015
0.35552
0.36875
0.38216
0.37409
0.35426
0.33040
0.31335
0.29483
0.29356
0.27119
0.25638
0.22774
0.18456
0.16075
0.12578
0.09515
0.05936
0.03546
0.02426
-0.00091
-0.00776
-0.03968
-0.06027
-0.07072
-0.08680
-0.08832
-0.09742
-0.09620
-0.10409
-0.11246
-0.12179
-0.12271
-0.12156
-0.12695
-0.10961
-0.10679
-0.10134
-0.10261
-0.10072
-0.10968
-0.10156
-0.09983
-0.10221
-0.09311
-0.08927
-0.07796
-0.07890
-0.09372
-0.10034
-0.10388
-0.10261
-0.09234
-0.10002
-0.11073
-0.12795
-0.14753
-0.14821
-0.14228
-0.13911
-0.13702
-0.13549
-0.14901
-0.16160
-0.15883
-0.17127
-0.17448
-0.18537
-0.18210
-0.15676
-0.15285
-0.15353
-0.16663
-0.17759
-0.17738
-0.18061
-0.17865
-0.17084
-0.17031
-0.16919
-0.17646
-0.17717
-0.18252
-0.16977
-0.15372
-0.13294
-0.12035
-0.11536
-0.11524
-0.11271
-0.08757
-0.06295
-0.03562
-0.00892
-0.00481
-0.01866
-0.03640
-0.06685
-0.08992
-0.10247
-0.11240
-0.12503
-0.14364
-0.17120
-0.20088
-0.22696
-0.23746
-0.24475
-0.23721
-0.23869
-0.23890
-0.23678
-0.25299
-0.26023
-0.26502
-0.26908
-0.26552
-0.26456
-0.25306
-0.24225
-0.25126
-0.25073
-0.26424
-0.26822
-0.27339
-0.26737
-0.25194
-0.25117
-0.25987
-0.24114
-0.25656
-0.27084
-0.27115
-0.26832
-0.25273
-0.25504
-0.25401
-0.24937
-0.25926
-0.26327
-0.27004
-0.27622
-0.27304
-0.26330
-0.25197
-0.25151
-0.26003
-0.26978
-0.26918
-0.26418
-0.26071
-0.25728
-0.24589
-0.24136
-0.24307
-0.25075
-0.25520
-0.25222
-0.25976
-0.26062
-0.25136
-0.24702
-0.24658
-0.24386
-0.25077
-0.25490
-0.25928
-0.26479
-0.25090
-0.23060
-0.22724
-0.24128
-0.24282
-0.24243
-0.24251
-0.23937
-0.22798
-0.22500
-0.21847
-0.21738
-0.21313
-0.22298
-0.22385
-0.20886
-0.21356
-0.19881
-0.19157
-0.18903
-0.19329
-0.21036
-0.20620
-0.20245
-0.19865
-0.18913
-0.19110
-0.18745
-0.17614
-0.17845
-0.19467
-0.19329
-0.19076
-0.17126
-0.16348
-0.16735
-0.16916
-0.17652
-0.17856
-0.18400
-0.18025
-0.17932
-0.18081
-0.18392
-0.17599
-0.17185
-0.18155
-0.17510
-0.18623
-0.17989
-0.16342
-0.16395
-0.15494
-0.16977
-0.18818
-0.17829
-0.17613
-0.16714
-0.16243
-0.14390
-0.15403
-0.15248
-0.15353
-0.15735
-0.16891
-0.16844
-0.16128
-0.15585
-0.14192
-0.14953
-0.15335
-0.15969
-0.16421
-0.16871
-0.16285
-0.15377
-0.15717
-0.14164
-0.14428
-0.13831
-0.15429
-0.15846
-0.15410
-0.14772
-0.13420
-0.12324
-0.13551
-0.14036
-0.15419
-0.14673
-0.14473
-0.14167
-0.12652
-0.11419
-0.11893
-0.11428
-0.12734
-0.12535
-0.12445
-0.12717
-0.12690
-0.10315
-0.11491
-0.11228
-0.11969
-0.13425
-0.12774
-0.12694
-0.12794
-0.10751
-0.10804
-0.11027
-0.11113
-0.11601
-0.12895
-0.12975
-0.11285
-0.11857
-0.10709
-0.10501
-0.11837
-0.12389
-0.11977
-0.11958
-0.10775
-0.10456
-0.09917
-0.09367
-0.09252
-0.09393
-0.10517
-0.10626
-0.10442
-0.10335
-0.08811
-0.08573
-0.07865
-0.07934
-0.07761
-0.06785
-0.05033
-0.03982
-0.02772
-0.00439
-0.00359
0.01045
0.03546
0.04567
0.08318
0.10235
0.10235
0.10567
0.09070
0.06129
0.03302
0.02322
-0.01411
-0.02282
-0.03883
-0.06146
-0.08344
-0.08726
-0.09914
-0.11564
-0.12289
-0.11795
-0.11278
-0.11490
-0.11947
-0.12378
-0.10656
-0.12529
-0.12141
-0.12469
-0.12138
-0.11653
-0.10307
-0.10845
-0.12250
-0.16944
-0.23322
-0.33131
-0.38270
-0.27394
0.04689
0.52784
1.06763
1.54567
1.82348
1.76210
1.29567
0.66375
0.20532
0.02692
0.03126
0.09338
0.10745
0.05724
-0.01388
-0.08553
-0.11414
-0.10351
-0.10854
-0.10822
-0.12375
-0.14043
-0.15282
-0.15850
-0.15594
-0.14844
-0.14415
-0.15760
-0.16736
-0.16988
-0.17998
-0.18055
-0.16953
-0.15015
-0.14510
-0.13455
-0.14254
-0.15816
-0.16282
-0.15544
-0.14817
-0.13847
-0.13692
-0.13835
-0.13079
-0.13228
-0.13562
-0.13624
-0.14505
-0.13562
-0.11601
-0.11236
-0.12384
-0.12571
-0.13119
-0.11697
-0.10145
-0.10065
-0.09076
-0.07233
-0.07296
-0.07401
-0.07686
-0.07890
-0.07615
-0.06725
-0.05563
-0.04518
-0.02859
-0.03843
-0.04198
-0.04168
-0.05596
-0.05455
-0.04757
-0.03167
-0.01015
-0.01086
-0.01203
-0.01576
-0.01605
-0.00876
0.01067
0.03855
0.05688
0.07591
0.08630
0.11055
0.10950
0.11660
0.13355
0.15829
0.18984
0.20736
0.21971
0.24395
0.25928
0.27946
0.29250
0.30853
0.33195
0.34228
0.33814
0.32705
0.30211
0.28495
0.27999
0.28313
0.29244
0.27647
0.25266
0.22800
0.19688
0.16320
0.13879
0.13558
0.14218
0.12727
0.11791
0.11870
0.09713
0.07517
0.05074
0.04278
0.04356
0.05425
0.03918
0.03465
0.02113
0.00155
-0.01400
-0.00813
0.00177
0.01772
0.03914
0.00963
0.00596
0.00007
-0.01853
-0.02432
-0.01485
-0.00002
-0.00471
-0.00850
-0.03038
-0.01866
-0.02583
-0.03604
-0.03649
-0.03396
-0.02218
-0.03247
-0.05011
-0.08153
-0.06988
-0.06338
-0.05374
-0.06340
-0.06369
-0.07583
-0.09772
-0.09835
-0.09787
-0.09282
-0.08687
-0.09443
-0.09341
-0.09652
-0.09175
-0.09146
-0.09160
-0.10073
-0.11215
-0.10054
-0.10748
-0.10536
-0.11194
-0.11422
-0.10962
-0.10745
-0.11309
-0.12778
-0.10711
-0.08653
-0.05388
-0.02197
-0.00913
-0.02501
-0.03369
-0.02182
0.01213
0.05066
0.08194
0.08785
0.05857
0.01973
-0.00875
-0.03328
-0.04294
-0.03864
-0.04838
-0.06538
-0.09561
-0.13295
-0.15096
-0.16853
-0.18170
-0.17821
-0.17257
-0.17007
-0.16966
-0.17264
-0.18835
-0.20213
-0.21035
-0.21261
-0.19018
-0.17493
-0.16064
-0.16101
-0.18021
-0.19281
-0.19826
-0.19294
-0.20591
-0.24863
-0.34841
-0.44040
-0.39477
-0.14600
0.30186
0.88709
1.41354
1.65561
1.40413
0.68487
-0.07559
-0.49637
-0.57743
-0.52863
-0.51399
-0.58728
-0.71296
-0.84613
-0.92281
-0.93586
-0.90147
-0.81799
-0.69001
-0.54341
-0.41220
-0.32271
-0.25034
-0.20383
-0.19437
-0.19099
-0.19464
-0.17940
-0.15943
-0.13698
-0.12680
-0.12485
-0.13037
-0.12611
-0.12738
-0.10246
-0.09190
-0.08596
-0.08271
-0.08027
-0.08659
-0.09171
-0.08843
-0.08609
-0.06611
-0.04201
-0.04073
-0.02863
-0.03628
-0.06985
-0.06541
-0.03620
-0.02328
0.00329
0.02618
0.04128
0.04532
0.05580
0.04373
0.05359
0.05620
0.09403
0.12766
0.14251
0.16585
0.16056
0.15718
0.15879
0.18891
0.21380
0.24078
0.27628
0.29616
0.31625
0.32401
0.30431
0.31642
0.32832
0.35372
0.36318
0.36812
0.37329
0.37994
0.37772
0.39381
0.39559
0.39935
0.38662
0.37602
0.35808
0.34308
0.31840
0.29425
0.27014
0.24274
0.21803
0.19320
0.16241
0.11606
0.08108
0.05556
0.04688
0.03010
0.00850
-0.01427
-0.04100
-0.04775
-0.06000
-0.08829
-0.12247
-0.11671
-0.10015
-0.07590
-0.06855
-0.09422
-0.11612
-0.12885
-0.13098
-0.12199
-0.11319
-0.10575
-0.08500
-0.07583
-0.08115
-0.09097
-0.09968
-0.09860
-0.09540
-0.07978
-0.08015
-0.07980
-0.08206
-0.08783
-0.09419
-0.10369
-0.10319
-0.09712
-0.08517
-0.08894
-0.09650
-0.10559
-0.11029
-0.12195
-0.13013
-0.11597
-0.12045
-0.10680
-0.12409
-0.13401
-0.13497
-0.13304
-0.14334
-0.13898
-0.13555
-0.13002
-0.13932
-0.15016
-0.14657
-0.15570
-0.15776
-0.14437
-0.13525
-0.11126
-0.09906
-0.08372
-0.07977
-0.08391
-0.07665
-0.05664
-0.02880
0.00063
0.02748
0.03677
0.03099
0.00167
-0.01821
-0.02895
-0.04036
-0.05081
-0.07747
-0.10752
-0.13147
-0.16823
-0.18792
-0.20023
-0.19981
-0.20258
-0.19240
-0.19746
-0.21183
-0.21164
-0.22323
-0.22904
-0.22945
-0.22370
-0.21588
-0.20472
-0.20626
-0.21873
-0.21766
-0.22464
-0.23046
-0.25955
-0.31154
-0.41155
-0.46016
-0.31771
0.05981
0.61993
1.20147
1.54307
1.38056
0.71131
-0.00567
-0.41147
-0.51458
-0.51152
-0.57004
-0.68935
-0.84145
-0.93641
-0.94769
-0.89618
-0.81478
-0.70271
-0.55629
-0.44300
-0.35009
-0.28158
-0.24272
-0.22518
-0.22279
-0.20909
-0.20702
-0.19438
-0.18883
-0.17474
-0.16349
-0.15176
-0.16039
-0.15563
-0.15602
-0.16704
-0.15774
-0.13417
-0.11922
-0.13047
-0.11728
-0.11230
-0.10980
-0.11566
-0.12891
-0.10468
-0.06970
-0.05782
-0.06350
-0.05438
-0.04852
-0.04290
-0.04205
-0.02761
-0.01089
0.00611
0.02794
0.03383
0.03117
0.03917
0.05474
0.05978
0.08555
0.10894
0.11976
0.12652
0.14086
0.14394
0.15913
0.17213
0.19852
0.21995
0.24721
0.26013
0.27090
0.27584
0.25757
0.27471
0.29533
0.30663
0.32654
0.35478
0.35181
0.36069
0.36772
0.34970
0.36232
0.36649
0.37474
0.35620
0.33051
0.31929
0.28570
0.24612
0.22336
0.19834
0.16716
0.14467
0.10745
0.07769
0.05278
0.01164
-0.01654
-0.03318
-0.05050
-0.06105
-0.06544
-0.06706
-0.08656
-0.09941
-0.11402
-0.10730
-0.10478
-0.09942
-0.08570
-0.08491
-0.09760
-0.10690
-0.11922
-0.11068
-0.10653
-0.09102
-0.08489
-0.07367
-0.07506
-0.08048
-0.07717
-0.08999
-0.07851
-0.07446
-0.06255
-0.05603
-0.06824
-0.07287
-0.07675
-0.09194
-0.09275
-0.08915
-0.08078
-0.08859
-0.10470
-0.08754
-0.11197
-0.11574
-0.11996
-0.12042
-0.11240
-0.11607
-0.11698
-0.12289
-0.13360
-0.14772
-0.15909
-0.15132
-0.15055
-0.14416
-0.14649
-0.14555
-0.15123
-0.16817
-0.15802
-0.16357
-0.15462
-0.14660
-0.14167
-0.15369
-0.16528
-0.16052
-0.17482
-0.16534
-0.16484
-0.15786
-0.14459
-0.14768
-0.14412
-0.14859
-0.16441
-0.16063
-0.16019
-0.15914
-0.14069
-0.13546
-0.12739
-0.11335
-0.11989
-0.11075
-0.09955
-0.08804
-0.06806
-0.05454
-0.04341
-0.02594
-0.00383
0.01743
0.02707
0.02938
0.01161
0.01080
-0.01087
-0.02592
-0.04780
-0.05487
-0.09271
-0.11695
-0.13129
-0.15091
-0.14956
-0.16500
-0.19481
-0.19677
-0.20528
-0.21618
-0.20389
-0.19672
-0.19186
-0.18671
-0.20455
-0.20275
-0.20551
-0.21092
-0.20252
-0.19923
-0.18589
-0.19240
-0.20561
-0.24484
-0.32217
-0.42258
-0.45801
-0.32843
0.02720
0.55378
1.11304
1.52281
1.60500
1.21617
0.51232
-0.10139
-0.39114
-0.43805
-0.43272
-0.50060
-0.66470
-0.85146
-0.97765
-1.00265
-0.95609
-0.85051
-0.71861
-0.57882
-0.45906
-0.37064
-0.30916
-0.25944
-0.22917
-0.21189
-0.21082
-0.19285
-0.18882
-0.19020
-0.19028
-0.17664
-0.16670
-0.15734
-0.14420
-0.14026
-0.14785
-0.14944
-0.15763
-0.16742
-0.14007
-0.13687
-0.12477
-0.10973
-0.12150
-0.11432
-0.11984
-0.11332
-0.10530
-0.09389
-0.07788
-0.06649
-0.07172
-0.07783
-0.07527
-0.05439
-0.04271
-0.02945
-0.01496
0.00555
0.02242
0.01754
0.02832
0.02965
0.04101
0.05529
0.06892
0.10336
0.11790
0.12807
0.13117
0.13640
0.15322
0.17545
0.19751
0.22728
0.24191
0.26408
0.26488
0.27721
0.29182
0.31616
0.34185
0.35074
0.37152
0.38352
0.38713
0.38493
0.38707
0.39848
0.40322
0.41990
0.43494
0.42893
0.42504
0.41136
0.38613
0.37238
0.35142
0.33848
0.32166
0.29308
0.26584
0.23574
0.18983
0.15578
0.11624
0.09600
0.08724
0.08832
0.06425
0.03670
0.01466
-0.01716
-0.02930
-0.04007
-0.03260
-0.03335
-0.03528
-0.04871
-0.06164
-0.08467
-0.09803
-0.09749
-0.09112
-0.06818
-0.06756
-0.07157
-0.07706
-0.09382
-0.09961
-0.08915
-0.09806
-0.07939
-0.07723
-0.06870
-0.06279
-0.07345
-0.09016
-0.08377
-0.08227
-0.08649
-0.08118
-0.08497
-0.09578
-0.09907
-0.12015
-0.12326
-0.12174
-0.12131
-0.12023
-0.10855
-0.11168
-0.12597
-0.13937
-0.16265
-0.15146
-0.13727
-0.13033
-0.13045
-0.14427
-0.16018
-0.17812
-0.16065
-0.14770
-0.14116
-0.13843
-0.13369
-0.12943
-0.15660
-0.18209
-0.19601
-0.18451
-0.17978
-0.18056
-0.17260
-0.17792
-0.16717
-0.16386
-0.16688
-0.17542
-0.17421
-0.16462
-0.17088
-0.16743
-0.14437
-0.13943
-0.12952
-0.13763
-0.12898
-0.13215
-0.10257
-0.06201
-0.03732
-0.01257
-0.00430
-0.01168
-0.01873
-0.01713
-0.00896
-0.00614
-0.01591
-0.05091
-0.08375
-0.11613
-0.13139
-0.16332
-0.18097
-0.18146
-0.17504
-0.17684
-0.19327
-0.21343
-0.21671
-0.22348
-0.21582
-0.20243
-0.20610
-0.21198
-0.23095
-0.23575
-0.22651
-0.22171
-0.20214
-0.18772
-0.18937
-0.19661
-0.22296
-0.28700
-0.37282
-0.45132
-0.40601
-0.14000
0.32372
0.89642
1.37361
1.57860
1.30602
0.60644
-0.10205
-0.49188
-0.54293
-0.49326
-0.50768
-0.61385
-0.77519
-0.90841
-0.97258
-0.96209
-0.88696
-0.79209
-0.67512
-0.56540
-0.45365
-0.36378
-0.30418
-0.24932
-0.22259
-0.20385
-0.19571
-0.18230
-0.18035
-0.17666
-0.17614
-0.17602
-0.16526
-0.13428
-0.12782
-0.12303
-0.11702
-0.12746
-0.13189
-0.14127
-0.13442
-0.13139
-0.10881
-0.09917
-0.07414
-0.07401
-0.08011
-0.07765
-0.07484
-0.07344
-0.07419
-0.06019
-0.03672
-0.02830
-0.02090
-0.00855
-0.00612
0.00280
0.01873
0.04405
0.05800
0.06622
0.05843
0.05115
0.06429
0.08446
0.09635
0.12383
0.15097
0.17169
0.17847
0.18088
0.18619
0.19656
0.20905
0.23381
0.25598
0.28099
0.29519
0.30339
0.32716
0.33366
0.32140
0.32356
0.34554
0.36531
0.39257
0.41583
0.41456
0.40656
0.39706
0.38625
0.38953
0.39886
0.37355
0.34048
0.31835
0.28329
0.25726
0.23076
0.21008
0.18988
0.14827
0.11954
0.07269
0.05002
0.01020
-0.00813
-0.01876
-0.02569
-0.03653
-0.05770
-0.06505
-0.09091
-0.09551
-0.10376
-0.10307
-0.08519
-0.08624
-0.09905
-0.09279
-0.08690
-0.08623
-0.09700
-0.08712
-0.08482
-0.06477
-0.05450
-0.05050
-0.05004
-0.06004
-0.07525
-0.07310
-0.05853
-0.06351
-0.06157
-0.06743
-0.07935
-0.07255
-0.09981
-0.10196
-0.08289
-0.09372
-0.09035
-0.10236
-0.10541
-0.10996
-0.11325
-0.11871
-0.11951
-0.10776
-0.10798
-0.10470
-0.11037
-0.12610
-0.13725
-0.13942
-0.14313
-0.13609
-0.12649
-0.11899
-0.11242
-0.11584
-0.11290
-0.11727
-0.09916
-0.08091
-0.05973
-0.04592
-0.04059
-0.03760
-0.02529
-0.00094
0.02347
0.03866
0.04923
0.04508
0.03145
0.01198
-0.01252
-0.04535
-0.07786
-0.10924
-0.12069
-0.13201
-0.14716
-0.17170
-0.18915
-0.20616
-0.20387
-0.20920
-0.21279
-0.19182
-0.19643
-0.19656
-0.20487
-0.22010
-0.23502
-0.23414
-0.21822
-0.21170
-0.21346
-0.21182
-0.20329
-0.21421
-0.24087
-0.29595
-0.37343
-0.45342
-0.40292
-0.13672
0.35321
0.94247
1.42429
1.53498
1.07478
0.30400
-0.30767
-0.54629
-0.54377
-0.52041
-0.58517
-0.73223
-0.88987
-0.96434
-0.96339
-0.90589
-0.81151
-0.68456
-0.55626
-0.45636
-0.36164
-0.29493
-0.25986
-0.22638
-0.20982
-0.21643
-0.20781
-0.19157
-0.19020
-0.19422
-0.17864
-0.15122
-0.14501
-0.14733
-0.14121
-0.15556
-0.16606
-0.16315
-0.15087
-0.14334
-0.12728
-0.11850
-0.12299
-0.12598
-0.11776
-0.12248
-0.10749
-0.09967
-0.08143
-0.06350
-0.05684
-0.06292
-0.05909
-0.06833
-0.04845
-0.03499
-0.02189
0.00537
-0.00514
0.00941
0.01795
0.02850
0.03000
0.04416
0.06728
0.09536
0.10348
0.11386
0.11735
0.12827
0.13328
0.15000
0.17469
0.18283
0.21705
0.23595
0.24338
0.23660
0.25056
0.26275
0.27510
0.29924
0.30763
0.32157
0.32234
0.32415
0.33247
0.34314
0.35805
0.35454
0.35001
0.33690
0.31924
0.28909
0.25836
0.23811
0.21865
0.18648
0.16461
0.13448
0.10132
0.07890
0.02398
-0.00108
-0.02567
-0.03774
-0.05327
-0.06093
-0.07326
-0.07742
-0.10177
-0.12135
-0.12539
-0.12966
-0.11924
-0.11957
-0.11881
-0.10453
-0.12113
-0.12376
-0.12371
-0.12124
-0.10006
-0.09054
-0.08539
-0.08672
-0.09688
-0.09540
-0.08817
-0.07968
-0.08106
-0.08227
-0.08382
-0.09143
-0.08962
-0.09320
-0.10189
-0.10256
-0.10408
-0.10541
-0.09481
-0.09567
-0.09794
-0.10751
-0.12147
-0.13064
-0.12821
-0.11854
-0.12582
-0.12082
-0.12604
-0.13926
-0.14017
-0.14914
-0.14618
-0.15410
-0.13338
-0.13282
-0.13528
-0.13697
-0.14320
-0.16955
-0.16114
-0.16370
-0.16720
-0.15089
-0.15593
-0.15117
-0.16378
-0.17466
-0.17563
-0.17320
-0.16377
-0.16367
-0.16459
-0.15261
-0.16304
-0.17034
-0.18156
-0.18008
-0.17045
-0.15553
-0.14979
-0.14124
-0.13741
-0.13025
-0.13032
-0.12614
-0.10934
-0.08134
-0.06235
-0.04829
-0.01008
0.01435
0.02358
0.01439
-0.00306
-0.01901
-0.03213
-0.04400
-0.05443
-0.08482
-0.12649
-0.16953
-0.18666
-0.19414
-0.17920
-0.18690
-0.18512
-0.19201
-0.21158
-0.23007
-0.22979
-0.22995
-0.21079
-0.20752
-0.20395
-0.20483
-0.20896
-0.20778
-0.21520
-0.22859
-0.25817
-0.32572
-0.42587
-0.45304
-0.31243
0.06739
0.61730
1.19505
1.55883
1.52137
0.98978
0.24642
-0.26579
-0.44527
-0.44913
-0.47152
-0.56036
-0.72890
-0.89412
-0.98292
-0.99387
-0.94235
-0.84775
-0.71211
-0.57871
-0.44676
-0.34141
-0.27923
-0.25089
-0.24032
-0.23246
-0.23068
-0.22368
-0.20597
-0.19501
-0.17522
-0.17187
-0.17255
-0.17690
-0.18511
-0.18790
-0.17358
-0.16638
-0.14835
-0.14575
-0.14668
-0.15150
-0.14597
-0.15123
-0.15459
-0.14142
-0.12481
-0.11512
-0.11913
-0.10020
-0.10241
-0.11230
-0.11066
-0.08379
-0.06825
-0.04479
-0.04266
-0.03793
-0.02673
-0.03668
-0.02238
-0.00249
0.00582
0.03590
0.04698
0.05611
0.06529
0.06089
0.06595
0.07340
0.08165
0.11494
0.14418
0.17723
0.19431
0.20002
0.20524
0.22251
0.24621
0.27151
0.29369
0.30516
0.30991
0.32008
0.33246
0.35970
0.37106
0.38203
0.38730
0.38962
0.40078
0.41132
0.41581
0.41340
0.40231
0.38838
0.39262
0.37907
0.37891
0.35481
0.30514
0.25518
0.22231
0.19890
0.19633
0.18174
0.15212
0.11414
0.08653
0.05323
0.01812
-0.00088
-0.03072
-0.04723
-0.06361
-0.08334
-0.09718
-0.10709
-0.11693
-0.10771
-0.11418
-0.12060
-0.11982
-0.12016
-0.12763
-0.12542
-0.12452
-0.13514
-0.15092
-0.13519
-0.12615
-0.12843
-0.12647
-0.13291
-0.12815
-0.12110
-0.12454
-0.12846
-0.13021
-0.13232
-0.14116
-0.14501
-0.14898
-0.15904
-0.17288
-0.16269
-0.13209
-0.11831
-0.12139
-0.13078
-0.16315
-0.18426
-0.19461
-0.19148
-0.18526
-0.17696
-0.16638
-0.17956
-0.18470
-0.18315
-0.18955
-0.17841
-0.18305
-0.18660
-0.18718
-0.19851
-0.20017
-0.21361
-0.22883
-0.24129
-0.23235
-0.20855
-0.19291
-0.18388
-0.19398
-0.20698
-0.21469
-0.20775
-0.20261
-0.21091
-0.20961
-0.23650
-0.22290
-0.19886
-0.17198
-0.14520
-0.14972
-0.14614
-0.12601
-0.11965
-0.11651
-0.12015
-0.12238
-0.09048
-0.06002
-0.03213
-0.00725
0.00028
-0.03047
-0.04526
-0.07758
-0.11372
-0.13837
-0.17171
-0.17658
-0.18104
-0.19196
-0.20712
-0.23496
-0.23785
-0.23191
-0.22536
-0.22606
-0.23590
-0.23700
-0.25827
-0.25235
-0.24972
-0.25619
-0.25306
-0.25340
-0.24783
-0.25175
-0.26098
-0.25355
-0.24979
-0.26467
-0.31642
-0.37087
-0.44954
-0.48576
-0.33606
0.02396
0.53405
1.06699
1.46095
1.51943
1.10577
0.36095
-0.29330
-0.57916
-0.58789
-0.54287
-0.54988
-0.65548
-0.79961
-0.93418
-0.99827
-0.99314
-0.96889
-0.92740
-0.83342
-0.71719
-0.57750
-0.45434
-0.36294
-0.32332
-0.29834
-0.28695
-0.27819
-0.26162
-0.25401
-0.22728
-0.20254
-0.18212
-0.17647
-0.19012
-0.20131
-0.21614
-0.21891
-0.21089
-0.19001
-0.16213
-0.14894
-0.14929
-0.15395
-0.15825
-0.16007
-0.15131
-0.15936
-0.16887
-0.15727
-0.13476
-0.10830
-0.08479
-0.08241
-0.08777
-0.08993
-0.09541
-0.09186
-0.08179
-0.08344
-0.06991
-0.04191
-0.01979
-0.00442
0.00232
0.01412
0.02044
0.03397
0.03091
0.04476
0.05736
0.08596
0.10791
0.12342
0.13127
0.13640
0.14845
0.15492
0.16945
0.18572
0.20919
0.24891
0.26601
0.28189
0.29040
0.28308
0.27543
0.29027
0.29594
0.31626
0.34800
0.35654
0.36264
0.34812
0.32884
0.33195
0.32609
0.30898
0.28425
0.25137
0.21578
0.18585
0.15649
0.10673
0.08736
0.05475
0.03582
0.01230
-0.01782
-0.04105
-0.07270
-0.08507
-0.10634
-0.11456
-0.11118
-0.12419
-0.12692
-0.13033
-0.14287
-0.15360
-0.16566
-0.15039
-0.14738
-0.12954
-0.12212
-0.13560
-0.12521
-0.13553
-0.14202
-0.13469
-0.13103
-0.10705
-0.10581
-0.10420
-0.11785
-0.13098
-0.13479
-0.13806
-0.13605
-0.13352
-0.13883
-0.13969
-0.13903
-0.15554
-0.17154
-0.17228
-0.17315
-0.16589
-0.17310
-0.17960
-0.17942
-0.19325
-0.19562
-0.20560
-0.21561
-0.20837
-0.20320
-0.19902
-0.20254
-0.21137
-0.21963
-0.22203
-0.23425
-0.23312
-0.21297
-0.21512
-0.22371
-0.22860
-0.23505
-0.24337
-0.22264
-0.21704
-0.21050
-0.18068
-0.16491
-0.16325
-0.16110
-0.15832
-0.15151
-0.11179
-0.07857
-0.04363
-0.03016
-0.04484
-0.05976
-0.08327
-0.10320
-0.11155
-0.12866
-0.13016
-0.15004
-0.17597
-0.21117
-0.25285
-0.26842
-0.27746
-0.28338
-0.26938
-0.26423
-0.26593
-0.27308
-0.27208
-0.28247
-0.28879
-0.29698
-0.28626
-0.27222
-0.25958
-0.26661
-0.28528
-0.28199
-0.29544
-0.28724
-0.29317
-0.30950
-0.37117
-0.48714
-0.53620
-0.43259
-0.10833
0.42275
1.00776
1.41599
1.46479
1.01726
0.28859
-0.26119
-0.49687
-0.53578
-0.54323
-0.62363
-0.78310
-0.93378
-1.02457
-1.04060
-0.98909
-0.90101
-0.77330
-0.63201
-0.50563
-0.41234
-0.35225
-0.32794
-0.32543
-0.32060
-0.31038
-0.28428
-0.27694
-0.26070
-0.24701
-0.24850
-0.24573
-0.25179
-0.24329
-0.24617
-0.23561
-0.22239
-0.22536
-0.21488
-0.20998
-0.21317
-0.23150
-0.20859
-0.19715
-0.18012
-0.16231
-0.16379
-0.15877
-0.15160
-0.15254
-0.14629
-0.13155
-0.10829
-0.08988
-0.07012
-0.07034
-0.05849
-0.05752
-0.04781
-0.02763
-0.00704
0.00809
0.02898
0.05291
0.06308
0.07079
0.08688
0.10685
0.13087
0.15673
0.17564
0.19434
0.20260
0.22031
0.22957
0.24569
0.26557
0.28208
0.29599
0.30027
0.29623
0.30602
0.31837
0.32475
0.32106
0.32562
0.32245
0.31425
0.28506
0.26249
0.22887
0.20158
0.17300
0.13408
0.11078
0.08291
0.05837
0.01348
-0.02003
-0.04173
-0.07443
-0.08649
-0.10182
-0.11415
-0.12640
-0.14499
-0.16872
-0.17371
-0.19784
-0.19688
-0.19552
-0.18402
-0.19169
-0.20599
-0.19959
-0.21409
-0.21837
-0.20885
-0.19627
-0.18211
-0.18410
-0.18980
-0.19066
-0.18742
-0.18157
-0.18291
-0.18201
-0.17250
-0.17289
-0.15834
-0.17058
-0.16929
-0.19146
-0.19673
-0.20469
-0.20247
-0.19679
-0.18903
-0.19572
-0.20027
-0.21011
-0.20941
-0.21664
-0.21869
-0.22393
-0.21074
-0.22393
-0.22327
-0.22627
-0.23520
-0.24059
-0.23570
-0.22630
-0.23076
-0.23395
-0.23754
-0.24179
-0.25305
-0.27103
-0.26691
-0.24284
-0.23408
-0.24068
-0.23507
-0.24759
-0.25755
-0.26633
-0.27145
-0.26099
-0.25698
-0.24753
-0.24087
-0.25432
-0.27506
-0.27586
-0.28307
-0.28230
-0.26177
-0.25972
-0.24440
-0.24705
-0.25779
-0.27405
-0.27180
-0.27085
-0.25605
-0.26682
-0.25259
-0.24359
-0.23469
-0.23368
-0.23332
-0.22174
-0.21214
-0.18742
-0.16871
-0.14167
-0.13051
-0.10637
-0.09815
-0.09706
-0.10049
-0.11090
-0.11352
-0.11989
-0.13043
-0.16287
-0.18376
-0.20864
-0.23099
-0.25519
-0.26746
-0.28173
-0.29411
-0.29938
-0.30457
-0.30609
-0.31555
-0.30549
-0.30617
-0.30985
-0.30430
-0.30107
-0.30951
-0.31611
-0.31450
-0.31208
-0.29712
-0.28675
-0.28920
-0.29705
-0.33223
-0.40357
-0.49434
-0.56999
-0.52258
-0.28812
0.13874
0.65172
1.13973
1.46081
1.39924
0.88842
0.18516
-0.31229
-0.49698
-0.50672
-0.51748
-0.62071
-0.79678
-0.96114
-1.06426
-1.07637
-1.03117
-0.93467
-0.80931
-0.69829
-0.57889
-0.49083
-0.40967
-0.36403
-0.33332
-0.31053
-0.30262
-0.30091
-0.30577
-0.29885
-0.29233
-0.28369
-0.26409
-0.26208
-0.25330
-0.24729
-0.26294
-0.26882
-0.25743
-0.25839
-0.24719
-0.22713
-0.21919
-0.21630
-0.22343
-0.23344
-0.22541
-0.22530
-0.22158
-0.19822
-0.18401
-0.17669
-0.17242
-0.17862
-0.17591
-0.16434
-0.15665
-0.14007
-0.12365
-0.12679
-0.12521
-0.11814
-0.11498
-0.10457
-0.08414
-0.06023
-0.05159
-0.02392
-0.01975
-0.02379
-0.01007
-0.00705
0.00563
0.02201
0.05665
0.08846
0.10111
0.12591
0.13239
0.15129
0.16749
0.18209
0.19210
0.22172
0.22836
0.24748
0.25054
0.25103
0.26674
0.27780
0.30257
0.31669
0.32660
0.32836
0.32186
0.30106
0.28864
0.27507
0.25864
0.25479
0.23601
0.21911
0.19922
0.16887
0.13389
0.10895
0.07326
0.04993
0.02402
-0.01079
-0.03201
-0.04130
-0.06906
-0.09949
-0.11793
-0.14385
-0.14711
-0.14659
-0.15416
-0.16237
-0.17903
-0.20357
-0.22413
-0.23078
-0.22354
-0.20747
-0.20228
-0.21174
-0.22912
-0.23422
-0.24345
-0.22875
-0.21604
-0.22043
-0.21555
-0.23554
-0.23822
-0.23308
-0.22576
-0.22062
-0.20507
-0.20712
-0.20999
-0.22862
-0.24850
-0.24263
-0.24219
-0.22263
-0.20451
-0.19054
-0.19457
-0.21334
-0.23570
-0.24239
-0.25539
-0.25745
-0.25787
-0.25650
-0.24661
-0.24617
-0.24420
-0.26405
-0.27270
-0.28394
-0.28153
-0.27113
-0.26888
-0.25545
-0.24696
-0.25862
-0.27307
-0.29586
-0.29080
-0.28429
-0.26937
-0.26652
-0.26931
-0.28047
-0.28685
-0.29526
-0.29988
-0.29680
-0.29503
-0.27700
-0.27693
-0.26725
-0.28430
-0.31380
-0.31800
-0.31248
-0.30530
-0.28369
-0.28281
-0.28248
-0.29666
-0.30639
-0.30188
-0.29518
-0.29167
-0.29248
-0.28774
-0.29238
-0.30008
-0.30138
-0.30271
-0.29357
-0.26203
-0.23945
-0.21493
-0.21548
-0.22509
-0.20540
-0.18661
-0.14114
-0.11417
-0.11337
-0.12300
-0.13691
-0.15600
-0.16671
-0.19009
-0.20295
-0.22800
-0.25840
-0.27926
-0.29671
-0.30882
-0.29540
-0.30282
-0.33126
-0.33295
-0.35465
-0.35241
-0.33837
-0.33559
-0.32576
-0.33560
-0.33300
-0.33627
-0.33751
-0.32760
-0.32724
-0.34733
-0.35146
-0.34978
-0.34207
-0.33609
-0.38007
-0.46984
-0.54180
-0.50696
-0.26293
0.17555
0.74848
1.24079
1.45279
1.19979
0.52026
-0.19934
-0.59917
-0.66489
-0.62281
-0.61521
-0.70632
-0.86293
-0.98493
-1.04151
-1.05037
-1.01957
-0.96244
-0.87026
-0.77237
-0.68425
-0.57493
-0.47557
-0.40291
-0.36562
-0.35108
-0.34513
-0.32445
-0.31383
-0.29552
-0.28296
-0.28118
-0.27926
-0.27236
-0.26659
-0.26825
-0.25905
-0.26960
-0.25195
-0.24684
-0.23408
-0.23023
-0.23283
-0.24892
-0.24044
-0.22832
-0.22782
-0.21186
-0.18763
-0.16927
-0.18089
-0.19654
-0.20574
-0.19982
-0.17584
-0.17742
-0.16862
-0.15545
-0.14181
-0.11068
-0.11277
-0.11457
-0.11685
-0.10363
-0.08111
-0.06131
-0.05199
-0.04103
-0.05556
-0.03628
-0.01611
0.01022
0.03323
0.05042
0.04292
0.04543
0.05390
0.07608
0.08653
0.09848
0.11535
0.13031
0.15965
0.17740
0.19566
0.17530
0.17466
0.19421
0.21315
0.24814
0.27424
0.27779
0.27217
0.24439
0.23066
0.22105
0.22004
0.21826
0.20379
0.16620
0.12123
0.09004
0.05715
0.02498
-0.00942
-0.05811
-0.05279
-0.06934
-0.09168
-0.11618
-0.15485
-0.17665
-0.20010
-0.20882
-0.19870
-0.19838
-0.20466
-0.22162
-0.22909
-0.23890
-0.23657
-0.22691
-0.20983
-0.20746
-0.19659
-0.20097
-0.21025
-0.21113
-0.21938
-0.20846
-0.20168
-0.18943
-0.19341
-0.19425
-0.20123
-0.22017
-0.22496
-0.22485
-0.22569
-0.21694
-0.21435
-0.22641
-0.24137
-0.25441
-0.26452
-0.26578
-0.25814
-0.25439
-0.25267
-0.24548
-0.26137
-0.26853
-0.27562
-0.29170
-0.30184
-0.29285
-0.29384
-0.28606
-0.28375
-0.29102
-0.29369
-0.30707
-0.29994
-0.30685
-0.29699
-0.29367
-0.29428
-0.30600
-0.31187
-0.32850
-0.32908
-0.30964
-0.30239
-0.28533
-0.27206
-0.26952
-0.26322
-0.27047
-0.26182
-0.22599
-0.21941
-0.20001
-0.18298
-0.16263
-0.13875
-0.12621
-0.13906
-0.13315
-0.14439
-0.15919
-0.15169
-0.16972
-0.19850
-0.23760
-0.25418
-0.28023
-0.30024
-0.30470
-0.30686
-0.30655
-0.31557
-0.32645
-0.34057
-0.34566
-0.34264
-0.32959
-0.32379
-0.32765
-0.33273
-0.34565
-0.35463
-0.35965
-0.34658
-0.34642
-0.33637
-0.33817
-0.35406
-0.38833
-0.47325
-0.56909
-0.59556
-0.42606
-0.01436
0.54312
1.09650
1.43260
1.29298
0.68840
-0.01769
-0.45889
-0.58845
-0.59202
-0.62747
-0.75096
-0.91485
-1.04804
-1.09820
-1.08295
-1.01089
-0.88994
-0.75224
-0.61791
-0.51604
-0.44896
-0.42381
-0.39064
-0.36328
-0.35462
-0.32025
-0.31487
-0.32056
-0.31656
-0.32548
-0.32424
-0.31341
-0.29370
-0.28062
-0.28852
-0.28513
-0.27225
-0.28597
-0.28327
-0.28616
-0.27829
-0.25811
-0.24203
-0.23426
-0.23619
-0.23958
-0.24698
-0.23971
-0.22241
-0.20150
-0.18608
-0.18363
-0.18224
-0.17877
-0.17595
-0.16413
-0.14487
-0.12961
-0.09883
-0.08580
-0.08606
-0.07845
-0.06397
-0.06538
-0.04492
-0.03074
0.00713
0.02748
0.03966
0.04941
0.06308
0.07479
0.09505
0.11492
0.12843
0.15163
0.16302
0.17083
0.17484
0.17256
0.18699
0.20423
0.22358
0.23492
0.25594
0.24991
0.24161
0.23841
0.22680
0.22219
0.20667
0.19937
0.18070
0.14002
0.11080
0.07683
0.04715
0.02559
0.00012
-0.03935
-0.06258
-0.08398
-0.11180
-0.12951
-0.15497
-0.18392
-0.20297
-0.21160
-0.21353
-0.21843
-0.22854
-0.24238
-0.25305
-0.26464
-0.26300
-0.27139
-0.26153
-0.25413
-0.25131
-0.26868
-0.26193
-0.26728
-0.26388
-0.26196
-0.26147
-0.24262
-0.23216
-0.24141
-0.24094
-0.24180
-0.24512
-0.23486
-0.23237
-0.21838
-0.21726
-0.22908
-0.23333
-0.24815
-0.25414
-0.24078
-0.24215
-0.23592
-0.23549
-0.24494
-0.25390
-0.26911
-0.26569
-0.27915
-0.28234
-0.27919
-0.26404
-0.25902
-0.26902
-0.27608
-0.28944
-0.29319
-0.29777
-0.29387
-0.27913
-0.28477
-0.28770
-0.30888
-0.30334
-0.30911
-0.31132
-0.30598
-0.30520
-0.31586
-0.30358
-0.30367
-0.31343
-0.31432
-0.31759
-0.31398
-0.30766
-0.30269
-0.29837
-0.30356
-0.30779
-0.31548
-0.31611
-0.31819
-0.32040
-0.30216
-0.30316
-0.30163
-0.30663
-0.31866
-0.31183
-0.30018
-0.29954
-0.29045
-0.28779
-0.29525
-0.30306
-0.30711
-0.31793
-0.31402
-0.30379
-0.29437
-0.27357
-0.25811
-0.25202
-0.25220
-0.25396
-0.23776
-0.23021
-0.22086
-0.17709
-0.14982
-0.13248
-0.13078
-0.12002
-0.13985
-0.14790
-0.16514
-0.17501
-0.18384
-0.21193
-0.23661
-0.27464
-0.29823
-0.30749
-0.32440
-0.32467
-0.31012
-0.31499
-0.31630
-0.33084
-0.34597
-0.33826
-0.33170
-0.33376
-0.31359
-0.30843
-0.31507
-0.31831
-0.33352
-0.33511
-0.34592
-0.37166
-0.43150
-0.51933
-0.57013
-0.43777
-0.08903
0.43399
1.00534
1.42437
1.49651
1.07675
0.36484
-0.23432
-0.51038
-0.54700
-0.53955
-0.58518
-0.73623
-0.90412
-1.03909
-1.10459
-1.09630
-1.03184
-0.92089
-0.79922
-0.66788
-0.53564
-0.44232
-0.40298
-0.37095
-0.35921
-0.35573
-0.35011
-0.33820
-0.32130
-0.30070
-0.29120
-0.28911
-0.29497
-0.30023
-0.29971
-0.28857
-0.27942
-0.26009
-0.25264
-0.25797
-0.25996
-0.26208
-0.26573
-0.25697
-0.25134
-0.23752
-0.22399
-0.22281
-0.22745
-0.23081
-0.23583
-0.22508
-0.21236
-0.20742
-0.18212
-0.17176
-0.16646
-0.17245
-0.16400
-0.16472
-0.14609
-0.11866
-0.11399
-0.09198
-0.07826
-0.06930
-0.06398
-0.05297
-0.04680
-0.02971
-0.00715
0.01935
0.03627
0.04645
0.06131
0.06232
0.08973
0.11025
0.13210
0.15237
0.16930
0.17944
0.19250
0.18872
0.20020
0.22070
0.23068
0.25239
0.26538
0.28058
0.27551
0.27116
0.26936
0.27685
0.29385
0.30065
0.30311
0.27868
0.25524
0.22194
0.18615
0.14663
0.12049
0.09359
0.06964
0.05358
0.03084
-0.00899
-0.04754
-0.06064
-0.08832
-0.10923
-0.11339
-0.13505
-0.15138
-0.16071
-0.18795
-0.21192
-0.21782
-0.20735
-0.19267
-0.18683
-0.19784
-0.21723
-0.22964
-0.24445
-0.25304
-0.23616
-0.22156
-0.22602
-0.21866
-0.21907
-0.23142
-0.23292
-0.22642
-0.22850
-0.22144
-0.22408
-0.22766
-0.23198
-0.24064
-0.23962
-0.24754
-0.24992
-0.25009
-0.23457
-0.22670
-0.24664
-0.26590
-0.26783
-0.27040
-0.26975
-0.26526
-0.24674
-0.23110
-0.24996
-0.27000
-0.28734
-0.29728
-0.31206
-0.29802
-0.29407
-0.29005
-0.27422
-0.27307
-0.27736
-0.27893
-0.28809
-0.29315
-0.29350
-0.28282
-0.27842
-0.30110
-0.31203
-0.31720
-0.31970
-0.31487
-0.30102
-0.28633
-0.28820
-0.30864
-0.32101
-0.34329
-0.32053
-0.32253
-0.31172
-0.31002
-0.32165
-0.31860
-0.32648
-0.33574
-0.33427
-0.33719
-0.34019
-0.32837
-0.30971
-0.29586
-0.30989
-0.31494
-0.32691
-0.34185
-0.32733
-0.32456
-0.32599
-0.32093
-0.31796
-0.31190
-0.31904
-0.32924
-0.32683
-0.33237
-0.31995
-0.31299
-0.32120
-0.31450
-0.31933
-0.33996
-0.33056
-0.30652
-0.27409
-0.25174
-0.24351
-0.25655
-0.25086
-0.27161
-0.26015
-0.22579
-0.18944
-0.14559
-0.12081
-0.12314
-0.14106
-0.16131
-0.17841
-0.21222
-0.21896
-0.23351
-0.24290
-0.24201
-0.26470
-0.30550
-0.33480
-0.34715
-0.35315
-0.35260
-0.35188
-0.35076
-0.35349
-0.35212
-0.36049
-0.36594
-0.37503
-0.35549
-0.34324
-0.33430
-0.34124
-0.35097
-0.35733
-0.37280
-0.37650
-0.38076
-0.39781
-0.42492
-0.51786
-0.57591
-0.47306
-0.14892
0.36854
0.95009
1.38297
1.44455
0.97846
0.18482
-0.44937
-0.71555
-0.70714
-0.66612
-0.69539
-0.81708
-0.97808
-1.07502
-1.10748
-1.07381
-0.99292
-0.85140
-0.72329
-0.59226
-0.48375
-0.38853
-0.35269
-0.35188
-0.36638
-0.36483
-0.34512
-0.30814
-0.29128
-0.29148
-0.28749
-0.28276
-0.29438
-0.29470
-0.29161
-0.29045
-0.27808
-0.26387
-0.24799
-0.23287
-0.24547
-0.26124
-0.25586
-0.24692
-0.22259
-0.21703
-0.21691
-0.21169
-0.20264
-0.19050
-0.18614
-0.18210
-0.16811
-0.14638
-0.13979
-0.12274
-0.12914
-0.14178
-0.13784
-0.12423
-0.09375
-0.07506
-0.05653
-0.04199
-0.04384
-0.04646
-0.04549
-0.03959
-0.01418
0.01526
0.03901
0.05888
0.08167
0.07836
0.08864
0.09001
0.09328
0.11444
0.14622
0.18388
0.20171
0.19518
0.19527
0.18874
0.19402
0.21790
0.23409
0.25503
0.27299
0.26085
0.23936
0.20975
0.17398
0.14607
0.11846
0.09506
0.08640
0.06502
0.03869
-0.00797
-0.05050
-0.07352
-0.08938
-0.10131
-0.10585
-0.13103
-0.16110
-0.19193
-0.21957
-0.22838
-0.23222
-0.23291
-0.21782
-0.22002
-0.22694
-0.25404
-0.25811
-0.25532
-0.25821
-0.25067
-0.23932
-0.21791
-0.22803
-0.22919
-0.23371
-0.23767
-0.23622
-0.22518
-0.22192
-0.21523
-0.21236
-0.22158
-0.24400
-0.24653
-0.24503
-0.24169
-0.24463
-0.24441
-0.25669
-0.26973
-0.26896
-0.28131
-0.29781
-0.29283
-0.29763
-0.28477
-0.29154
-0.30143
-0.31017
-0.30820
-0.31861
-0.32275
-0.33619
-0.33429
-0.31668
-0.31736
-0.33446
-0.34557
-0.35210
-0.35507
-0.34231
-0.33871
-0.32976
-0.31338
-0.32315
-0.33425
-0.34181
-0.36329
-0.36932
-0.35783
-0.32997
-0.32395
-0.33052
-0.33672
-0.34931
-0.35490
-0.35632
-0.35394
-0.32290
-0.30620
-0.29181
-0.27859
-0.28484
-0.29085
-0.28215
-0.26166
-0.23733
-0.20144
-0.17398
-0.15512
-0.17151
-0.19169
-0.21452
-0.23134
-0.24044
-0.24554
-0.25425
-0.28014
-0.33129
-0.35419
-0.37955
-0.38678
-0.38547
-0.37297
-0.36904
-0.37469
-0.38057
-0.40175
-0.41623
-0.41169
-0.41442
-0.40591
-0.39431
-0.39273
-0.37893
-0.38468
-0.39693
-0.40454
-0.41045
-0.45561
-0.53139
-0.62250
-0.56513
-0.26274
0.27343
0.87077
1.31612
1.33979
0.82237
0.08692
-0.43267
-0.63394
-0.67476
-0.70826
-0.82112
-0.96810
-1.09337
-1.14281
-1.11930
-1.03347
-0.92747
-0.80009
-0.66575
-0.56685
-0.48503
-0.43384
-0.40534
-0.39364
-0.38791
-0.38311
-0.38106
-0.37228
-0.35847
-0.34907
-0.32028
-0.32301
-0.33569
-0.34252
-0.34416
-0.33120
-0.33125
-0.32104
-0.30609
-0.30026
-0.30027
-0.29949
-0.30994
-0.30927
-0.30022
-0.27684
-0.26594
-0.25608
-0.23687
-0.24519
-0.24988
-0.25445
-0.24836
-0.22102
-0.19989
-0.17937
-0.17426
-0.17576
-0.16449
-0.16336
-0.14964
-0.12489
-0.10619
-0.09051
-0.06548
-0.05745
-0.04631
-0.03617
-0.02456
-0.01952
0.00588
0.03202
0.04903
0.07533
0.08780
0.10841
0.09944
0.11581
0.13106
0.15705
0.15710
0.16993
0.18691
0.19210
0.19172
0.19118
0.19822
0.20398
0.20485
0.19878
0.18887
0.16404
0.12466
0.09926
0.07286
0.06048
0.04844
0.01387
-0.02214
-0.05709
-0.09473
-0.12210
-0.14490
-0.16562
-0.17344
-0.18603
-0.20212
-0.22825
-0.24882
-0.25126
-0.27725
-0.28530
-0.27989
-0.27044
-0.28085
-0.28217
-0.27862
-0.29279
-0.29385
-0.29208
-0.28442
-0.27811
-0.26945
-0.26518
-0.26785
-0.26944
-0.28771
-0.28438
-0.25981
-0.25416
-0.24030
-0.23687
-0.24780
-0.25449
-0.25090
-0.25619
-0.26424
-0.25813
-0.24601
-0.25270
-0.25358
-0.26172
-0.27466
-0.28475
-0.27827
-0.29513
-0.28224
-0.28333
-0.28774
-0.29449
-0.29976
-0.30592
-0.32088
-0.31068
-0.31078
-0.30206
-0.30163
-0.31044
-0.32674
-0.33694
-0.33288
-0.32383
-0.31690
-0.32060
-0.32242
-0.31754
-0.33237
-0.35400
-0.34880
-0.34526
-0.34519
-0.32933
-0.32516
-0.31593
-0.32542
-0.33269
-0.33644
-0.34272
-0.34424
-0.32957
-0.33132
-0.33618
-0.33553
-0.33786
-0.34478
-0.35421
-0.34329
-0.34144
-0.33260
-0.33432
-0.33346
-0.34963
-0.33739
-0.34750
-0.34573
-0.33162
-0.34247
-0.31429
-0.31594
-0.30605
-0.30947
-0.30136
-0.29057
-0.27239
-0.26189
-0.24620
-0.21756
-0.20667
-0.19358
-0.17505
-0.16980
-0.15572
-0.15542
-0.16937
-0.17159
-0.18921
-0.20618
-0.21963
-0.24924
-0.26134
-0.28195
-0.30807
-0.31395
-0.32185
-0.33516
-0.34744
-0.36361
-0.37631
-0.36878
-0.34796
-0.34608
-0.35994
-0.34984
-0.36220
-0.35768
-0.36397
-0.35696
-0.35144
-0.34061
-0.33971
-0.33366
-0.33793
-0.36681
-0.42714
-0.50850
-0.59227
-0.58320
-0.38666
-0.00195
0.54007
1.06018
1.39948
1.40584
0.95864
0.27361
-0.27505
-0.51252
-0.53293
-0.54302
-0.62223
-0.77634
-0.94129
-1.07503
-1.12760
-1.10190
-1.03330
-0.95018
-0.84752
-0.71896
-0.59543
-0.50516
-0.42647
-0.38651
-0.35944
-0.34257
-0.35116
-0.36273
-0.34728
-0.33078
-0.31883
-0.29033
-0.28191
-0.28999
-0.28954
-0.29401
-0.29413
-0.28556
-0.27984
-0.26841
-0.26395
-0.25703
-0.25607
-0.27158
-0.25911
-0.24655
-0.24645
-0.22662
-0.22594
-0.23186
-0.22555
-0.23179
-0.22782
-0.21843
-0.21077
-0.19454
-0.18853
-0.17305
-0.17122
-0.15337
-0.14083
-0.13473
-0.12570
-0.09282
-0.08757
-0.06661
-0.04311
-0.03774
-0.02797
-0.03184
-0.01987
-0.00108
0.02895
0.06710
0.08867
0.09236
0.10189
0.09180
0.11687
0.15786
0.20279
0.23065
0.23927
0.25257
0.24154
0.24804
0.24257
0.24722
0.26458
0.28499
0.31058
0.31174
0.31981
0.31094
0.27864
0.26011
0.25387
0.24457
0.24129
0.22073
0.17625
0.13866
0.11316
0.08246
0.04399
0.01955
-0.00113
-0.02843
-0.05310
-0.06597
-0.08660
-0.12404
-0.14703
-0.15179
-0.16567
-0.16571
-0.18856
-0.19778
-0.19868
-0.21731
-0.21326
-0.23032
-0.22337
-0.21519
-0.21931
-0.22111
-0.22925
-0.23510
-0.24524
-0.24818
-0.22712
-0.20806
-0.20516
-0.20184
-0.22152
-0.23582
-0.22677
-0.22927
-0.22627
-0.21550
-0.22722
-0.21862
-0.21900
-0.21933
-0.23100
-0.24876
-0.26150
-0.26198
-0.25435
-0.25079
-0.24303
-0.25194
-0.26978
-0.26893
-0.27059
-0.25066
-0.25747
-0.26493
-0.25950
-0.26702
-0.28154
-0.28640
-0.27859
-0.26613
-0.26266
-0.26066
-0.26387
-0.27630
-0.28174
-0.30713
-0.30093
-0.28789
-0.29133
-0.28873
-0.29265
-0.29652
-0.28353
-0.28974
-0.29507
-0.29672
-0.29979
-0.29688
-0.28674
-0.26757
-0.26682
-0.27343
-0.29052
-0.29807
-0.29540
-0.28555
-0.27714
-0.26075
-0.26899
-0.26757
-0.27175
-0.26997
-0.25373
-0.22857
-0.19784
-0.17931
-0.16537
-0.16538
-0.15892
-0.15831
-0.14289
-0.13093
-0.12947
-0.14529
-0.14818
-0.15713
-0.18657
-0.22169
-0.25261
-0.27034
-0.28516
-0.30420
-0.31882
-0.32773
-0.32996
-0.32192
-0.33800
-0.32795
-0.33086
-0.32872
-0.31856
-0.31365
-0.30800
-0.32888
-0.34115
-0.34557
-0.33643
-0.33110
-0.31627
-0.32610
-0.34244
-0.37168
-0.44740
-0.52737
-0.56165
-0.38977
0.00908
0.59328
1.14960
1.45845
1.26037
0.54779
-0.21933
-0.65730
-0.72073
-0.66545
-0.66578
-0.76234
-0.91624
-1.03718
-1.08279
-1.04945
-0.95202
-0.84968
-0.73790
-0.63054
-0.51604
-0.41739
-0.36945
-0.34960
-0.34783
-0.32387
-0.29515
-0.29372
-0.30815
-0.31009
-0.32026
-0.29646
-0.28150
-0.27090
-0.27713
-0.24662
-0.24421
-0.24868
-0.25677
-0.26248
-0.24514
-0.22883
-0.22441
-0.21939
-0.22788
-0.22463
-0.22379
-0.21893
-0.21483
-0.19208
-0.17751
-0.15713
-0.15164
-0.15785
-0.14803
-0.15143
-0.13630
-0.11022
-0.09382
-0.09286
-0.06981
-0.06166
-0.05340
-0.05288
-0.03730
-0.01541
0.02027
0.05836
0.06745
0.06497
0.07256
0.08888
0.10215
0.12328
0.13989
0.14819
0.17243
0.16926
0.17103
0.17353
0.19076
0.21607
0.23351
0.24846
0.25248
0.25667
0.24282
0.20833
0.18223
0.16865
0.16435
0.13844
0.11705
0.09016
0.06037
0.01414
-0.02552
-0.04928
-0.08328
-0.09238
-0.12068
-0.14697
-0.16561
-0.19794
-0.21111
-0.22331
-0.23253
-0.23062
-0.22551
-0.23810
-0.25238
-0.26630
-0.27369
-0.27185
-0.28082
-0.25954
-0.25873
-0.24884
-0.24669
-0.25196
-0.25881
-0.26141
-0.25483
-0.25310
-0.23174
-0.21407
-0.22926
-0.24041
-0.24455
-0.25725
-0.24609
-0.25270
-0.24210
-0.23112
-0.25187
-0.25450
-0.26212
-0.27694
-0.28524
-0.28210
-0.27932
-0.27048
-0.28463
-0.28340
-0.28352
-0.30259
-0.31218
-0.32038
-0.30454
-0.30056
-0.30667
-0.30455
-0.31469
-0.32356
-0.32861
-0.34121
-0.33615
-0.32973
-0.31929
-0.32420
-0.31723
-0.32194
-0.34250
-0.34228
-0.33685
-0.33074
-0.34065
-0.34482
-0.34626
-0.33033
-0.33059
-0.31948
-0.31392
-0.29777
-0.26790
-0.26550
-0.25169
-0.24392
-0.23392
-0.20445
-0.18645
-0.17320
-0.16267
-0.16458
-0.20145
-0.22531
-0.24206
-0.26262
-0.28725
-0.30874
-0.32743
-0.33682
-0.35906
-0.36820
-0.38698
-0.38241
-0.39909
-0.40689
-0.40678
-0.39209
-0.39521
-0.39930
-0.40163
-0.41199
-0.41170
-0.42423
-0.41302
-0.40389
-0.38871
-0.39378
-0.40668
-0.44915
-0.54470
-0.64514
-0.63467
-0.42178
0.02963
0.62817
1.17422
1.38922
1.06854
0.35937
-0.28252
-0.59897
-0.66238
-0.64958
-0.71434
-0.86155
-1.04025
-1.14921
-1.16939
-1.13477
-1.04359
-0.92426
-0.80244
-0.68606
-0.58700
-0.52600
-0.47856
-0.45767
-0.43577
-0.41015
-0.39406
-0.38263
-0.38042
-0.38722
-0.38112
-0.38717
-0.36786
-0.35225
-0.34541
-0.34654
-0.34914
-0.34989
-0.35099
-0.35841
-0.34958
-0.33834
-0.31379
-0.30654
-0.30508
-0.30367
-0.31153
-0.30948
-0.30211
-0.29568
-0.27966
-0.27309
-0.27707
-0.27468
-0.27375
-0.26102
-0.24511
-0.22993
-0.20473
-0.19864
-0.19244
-0.18926
-0.18417
-0.19250
-0.18218
-0.15607
-0.13518
-0.11392
-0.10233
-0.08981
-0.07937
-0.07636
-0.05856
-0.04254
-0.02300
0.01297
0.02773
0.03971
0.04635
0.06241
0.06573
0.08162
0.09975
0.11720
0.12377
0.14469
0.15512
0.15806
0.16239
0.16132
0.16760
0.18274
0.18332
0.18308
0.16799
0.15085
0.11411
0.09036
0.06965
0.04360
0.01750
-0.00331
-0.03900
-0.07470
-0.11298
-0.14730
-0.17979
-0.19559
-0.20915
-0.22156
-0.23898
-0.27061
-0.30068
-0.30239
-0.31526
-0.31351
-0.32030
-0.32279
-0.32098
-0.32893
-0.33346
-0.34322
-0.33885
-0.33711
-0.33563
-0.31962
-0.31693
-0.32091
-0.32072
-0.33167
-0.34169
-0.33312
-0.32705
-0.31846
-0.30629
-0.31035
-0.31338
-0.31739
-0.32391
-0.33667
-0.32488
-0.31889
-0.31843
-0.31636
-0.32196
-0.33310
-0.33815
-0.35121
-0.35485
-0.34830
-0.34334
-0.34157
-0.34474
-0.35033
-0.35355
-0.36229
-0.36530
-0.35967
-0.36286
-0.35386
-0.36044
-0.35869
-0.35958
-0.38367
-0.38208
-0.37357
-0.37104
-0.35574
-0.35311
-0.36426
-0.35996
-0.36498
-0.37794
-0.36519
-0.36121
-0.35146
-0.35067
-0.35088
-0.36197
-0.37048
-0.37385
-0.37667
-0.36232
-0.35910
-0.34804
-0.35912
-0.34997
-0.34856
-0.34391
-0.33236
-0.30783
-0.29483
-0.27270
-0.26262
-0.24898
-0.23193
-0.21432
-0.20114
-0.17384
-0.16911
-0.17553
-0.18412
-0.19999
-0.23300
-0.24899
-0.27399
-0.28849
-0.30039
-0.32900
-0.35031
-0.36251
-0.36315
-0.37388
-0.38683
-0.39669
-0.39675
-0.39681
-0.39258
-0.38598
-0.37974
-0.38858
-0.40108
-0.39673
-0.39061
-0.37794
-0.38574
-0.37316
-0.37194
-0.37991
-0.39536
-0.42066
-0.48258
-0.55990
-0.62990
-0.60818
-0.38109
0.03640
0.56560
1.04910
1.36130
1.34596
0.88425
0.19212
-0.34783
-0.58053
-0.59988
-0.58079
-0.63745
-0.78550
-0.96161
-1.08997
-1.16213
-1.15393
-1.08858
-0.98775
-0.87661
-0.74590
-0.62188
-0.53081
-0.46590
-0.44124
-0.42866
-0.41797
-0.41331
-0.39834
-0.38361
-0.37942
-0.36799
-0.35539
-0.35638
-0.34490
-0.35049
-0.34990
-0.34360
-0.33756
-0.32169
-0.30961
-0.31601
-0.32449
-0.33038
-0.32563
-0.31321
-0.31761
-0.30026
-0.28253
-0.28892
-0.26898
-0.26571
-0.26142
-0.25640
-0.23809
-0.22555
-0.19712
-0.17812
-0.18064
-0.18713
-0.19039
-0.17334
-0.16158
-0.13925
-0.12414
-0.10861
-0.09663
-0.07497
-0.06072
-0.05525
-0.03755
-0.01431
0.01258
0.03975
0.06958
0.07680
0.07736
0.07891
0.10459
0.13854
0.17144
0.19772
0.21448
0.21782
0.21236
0.20591
0.22882
0.23831
0.25217
0.27320
0.28050
0.27953
0.27076
0.24027
0.22182
0.20330
0.19151
0.17433
0.14211
0.11747
0.08856
0.05632
0.01251
-0.00895
-0.04686
-0.07158
-0.07950
-0.10217
-0.13637
-0.17012
-0.18696
-0.20892
-0.21665
-0.22294
-0.21974
-0.21528
-0.24423
-0.25894
-0.27993
-0.28779
-0.28056
-0.27022
-0.26688
-0.28225
-0.26607
-0.26290
-0.28271
-0.29017
-0.28682
-0.28481
-0.26735
-0.26818
-0.27044
-0.27799
-0.27671
-0.28847
-0.29374
-0.28623
-0.28949
-0.28649
-0.27612
-0.28237
-0.29171
-0.29674
-0.30449
-0.30285
-0.29091
-0.29008
-0.28908
-0.29671
-0.30592
-0.31571
-0.31121
-0.31534
-0.30922
-0.30558
-0.29311
-0.30578
-0.31022
-0.33744
-0.34037
-0.32519
-0.32266
-0.33082
-0.34498
-0.34916
-0.34382
-0.33984
-0.33712
-0.33175
-0.33879
-0.33090
-0.33741
-0.32136
-0.32344
-0.32525
-0.33435
-0.35691
-0.37176
-0.36624
-0.34774
-0.33125
-0.31656
-0.32553
-0.33272
-0.34863
-0.34884
-0.33628
-0.33148
-0.32451
-0.30612
-0.29090
-0.27995
-0.27176
-0.26321
-0.24711
-0.24156
-0.22715
-0.21689
-0.19760
-0.16885
-0.15253
-0.14668
-0.14824
-0.15988
-0.17143
-0.17985
-0.19671
-0.22589
-0.26415
-0.30353
-0.34032
-0.34587
-0.34267
-0.33685
-0.34513
-0.36176
-0.35060
-0.36187
-0.37053
-0.35627
-0.35708
-0.35462
-0.34042
-0.34612
-0.34386
-0.35518
-0.36053
-0.36736
-0.37253
-0.36630
-0.36315
-0.39401
-0.48412
-0.57602
-0.56111
-0.28901
0.21765
0.83144
1.32451
1.39117
0.89131
0.07727
-0.50872
-0.72077
-0.71748
-0.67290
-0.72732
-0.86916
-1.01804
-1.08994
-1.08951
-1.02982
-0.92824
-0.79937
-0.66897
-0.54777
-0.45625
-0.39741
-0.36700
-0.37026
-0.36862
-0.35487
-0.32341
-0.29629
-0.28355
-0.28728
-0.30207
-0.31284
-0.30823
-0.28842
-0.27283
-0.26079
-0.24705
-0.23640
-0.25349
-0.25677
-0.26987
-0.25392
-0.23129
-0.22569
-0.19834
-0.21131
-0.21225
-0.21359
-0.21556
-0.21188
-0.19495
-0.16965
-0.15560
-0.12549
-0.12139
-0.11901
-0.12696
-0.11521
-0.11029
-0.10232
-0.09255
-0.06354
-0.03120
-0.01034
0.00614
0.00457
0.00454
0.01594
0.04364
0.07118
0.08617
0.08683
0.09660
0.10139
0.11936
0.13307
0.14972
0.16582
0.17338
0.17376
0.17542
0.19490
0.20203
0.21915
0.23410
0.25222
0.26384
0.26819
0.26294
0.25382
0.21737
0.19846
0.19329
0.17167
0.15278
0.12883
0.09756
0.06417
0.01306
-0.00510
-0.02799
-0.04789
-0.06126
-0.09527
-0.11833
-0.12703
-0.16534
-0.18455
-0.19595
-0.19996
-0.20130
-0.20301
-0.21530
-0.21719
-0.22915
-0.24225
-0.25133
-0.22177
-0.20691
-0.19926
-0.19361
-0.20783
-0.21614
-0.20851
-0.21713
-0.21078
-0.20987
-0.19900
-0.18093
-0.20327
-0.21408
-0.20049
-0.20855
-0.20725
-0.20551
-0.19564
-0.19155
-0.19675
-0.21290
-0.22533
-0.24841
-0.24698
-0.23913
-0.24424
-0.23694
-0.23030
-0.23990
-0.25278
-0.26067
-0.27200
-0.26411
-0.27631
-0.25964
-0.25138
-0.25216
-0.25819
-0.27088
-0.27537
-0.28749
-0.28105
-0.27533
-0.27690
-0.27381
-0.29319
-0.28957
-0.29696
-0.31477
-0.31447
-0.29679
-0.28026
-0.29075
-0.29880
-0.29682
-0.29818
-0.29407
-0.28511
-0.26844
-0.23046
-0.21637
-0.22075
-0.21218
-0.20863
-0.18756
-0.16103
-0.12794
-0.10531
-0.10483
-0.11722
-0.13562
-0.16179
-0.17761
-0.20214
-0.21849
-0.23465
-0.25089
-0.27224
-0.29038
-0.31198
-0.32763
-0.33437
-0.33197
-0.32933
-0.33864
-0.33452
-0.33916
-0.34192
-0.35557
-0.35977
-0.35990
-0.35523
-0.35273
-0.33482
-0.32197
-0.32089
-0.33483
-0.35175
-0.40372
-0.47876
-0.57176
-0.54223
-0.29092
0.19405
0.79542
1.29261
1.42680
1.04405
0.33222
-0.26842
-0.54298
-0.59535
-0.60863
-0.69347
-0.85523
-1.01369
-1.09594
-1.08981
-1.00650
-0.89102
-0.73337
-0.60582
-0.49771
-0.44141
-0.38735
-0.35204
-0.33890
-0.31833
-0.31302
-0.30872
-0.30949
-0.29951
-0.30178
-0.29011
-0.28413
-0.28306
-0.28200
-0.27475
-0.27955
-0.28859
-0.26799
-0.26367
-0.24451
-0.23217
-0.23014
-0.22438
-0.23082
-0.22417
-0.22405
-0.21670
-0.21161
-0.19618
-0.18571
-0.16907
-0.17345
-0.16567
-0.17831
-0.16623
-0.13591
-0.11722
-0.10123
-0.09550
-0.07934
-0.07800
-0.07453
-0.05999
-0.04006
-0.02959
-0.01080
0.01205
0.02284
0.04238
0.05706
0.07826
0.10056
0.12580
0.15679
0.15982
0.18176
0.20607
0.20194
0.20676
0.22862
0.23787
0.26118
0.27063
0.27117
0.28198
0.29056
0.28464
0.27647
0.28187
0.27862
0.29017
0.27565
0.24215
0.20930
0.18201
0.15951
0.13355
0.10331
0.08130
0.05342
0.02220
-0.00589
-0.04026
-0.07044
-0.08987
-0.10634
-0.12316
-0.13778
-0.14761
-0.17485
-0.18966
-0.21181
-0.22167
-0.22158
-0.21675
-0.21017
-0.21017
-0.22016
-0.22570
-0.23273
-0.25121
-0.24108
-0.21766
-0.20755
-0.19364
-0.19532
-0.20598
-0.22013
-0.22356
-0.23581
-0.22720
-0.20395
-0.19246
-0.19050
-0.19393
-0.20782
-0.22010
-0.22080
-0.21813
-0.21027
-0.20310
-0.21083
-0.21228
-0.22832
-0.23689
-0.24104
-0.23958
-0.23509
-0.23781
-0.23951
-0.22639
-0.23253
-0.25161
-0.26422
-0.26600
-0.25865
-0.24916
-0.24173
-0.24025
-0.23993
-0.26614
-0.27369
-0.27288
-0.26401
-0.26485
-0.25144
-0.26426
-0.26819
-0.26242
-0.27717
-0.28018
-0.28059
-0.26717
-0.25313
-0.25674
-0.25957
-0.26436
-0.27916
-0.28598
-0.27317
-0.26774
-0.26138
-0.25780
-0.26332
-0.27193
-0.27808
-0.27346
-0.27634
-0.27791
-0.27279
-0.25874
-0.25939
-0.26023
-0.26245
-0.27786
-0.28894
-0.28430
-0.27404
-0.24959
-0.23644
-0.23224
-0.22320
-0.21454
-0.21650
-0.20284
-0.18184
-0.17412
-0.15729
-0.13678
-0.11229
-0.10475
-0.08949
-0.09025
-0.09455
-0.09689
-0.10052
-0.12339
-0.13053
-0.16372
-0.18771
-0.21489
-0.23210
-0.25234
-0.26036
-0.26529
-0.26980
-0.28188
-0.29177
-0.28596
-0.28921
-0.28074
-0.27233
-0.27437
-0.27666
-0.27849
-0.28682
-0.29410
-0.28487
-0.29494
-0.27534
-0.27362
-0.25773
-0.27121
-0.29240
-0.35196
-0.43487
-0.51946
-0.54238
-0.40367
-0.07150
0.41947
0.95522
1.35555
1.47896
1.19000
0.55144
-0.06403
-0.40229
-0.47396
-0.45811
-0.49678
-0.63206
-0.80903
-0.96609
-1.03715
-1.02850
-0.98200
-0.88538
-0.77246
-0.65942
-0.55097
-0.45466
-0.38975
-0.33790
-0.30797
-0.29764
-0.29297
-0.28646
-0.28847
-0.27195
-0.25012
-0.24341
-0.22492
-0.22651
-0.22124
-0.22491
-0.22187
-0.22751
-0.22170
-0.20883
-0.20033
-0.19679
-0.19364
-0.20170
-0.20224
-0.19937
-0.19760
-0.17689
-0.15155
-0.15225
-0.14949
-0.14908
-0.14641
-0.13949
-0.13751
-0.12663
-0.10858
-0.09830
-0.08831
-0.06516
-0.07155
-0.06960
-0.06456
-0.04898
-0.01854
0.00122
0.01754
0.03147
0.04059
0.03872
0.05136
0.06990
0.09235
0.12731
0.13649
0.15178
0.17901
0.18242
0.20187
0.21336
0.23594
0.25514
0.27402
0.28156
0.28682
0.29114
0.29664
0.31721
0.33028
0.34399
0.35713
0.35795
0.34982
0.34407
0.32796
0.30702
0.29053
0.27504
0.25549
0.23977
0.21348
0.17798
0.14973
0.11149
0.08443
0.05908
0.03062
0.00925
-0.01676
-0.05013
-0.08522
-0.10973
-0.11609
-0.11302
-0.11248
-0.10073
-0.12052
-0.13690
-0.15422
-0.16141
-0.17108
-0.17564
-0.16557
-0.16257
-0.16244
-0.16246
-0.16911
-0.17173
-0.17883
-0.16857
-0.15233
-0.14936
-0.14305
-0.15693
-0.16653
-0.15543
-0.15849
-0.15698
-0.16327
-0.17133
-0.17954
-0.17241
-0.17519
-0.17657
-0.18751
-0.20998
-0.20874
-0.21414
-0.21217
-0.21079
-0.20142
-0.18663
-0.20196
-0.21705
-0.22280
-0.22402
-0.22274
-0.20864
-0.20928
-0.20717
-0.22190
-0.23191
-0.24213
-0.24460
-0.23904
-0.23187
-0.22903
-0.22411
-0.21937
-0.22467
-0.23992
-0.24736
-0.24857
-0.24170
-0.21688
-0.21180
-0.22122
-0.24173
-0.25763
-0.26053
-0.24494
-0.24703
-0.24706
-0.25603
-0.24969
-0.25142
-0.24400
-0.23944
-0.23391
-0.23007
-0.23239
-0.23707
-0.25142
-0.26239
-0.26478
-0.26013
-0.24361
-0.22692
-0.21390
-0.19482
-0.19139
-0.18286
-0.19525
-0.19710
-0.18824
-0.18003
-0.15455
-0.12247
-0.11517
-0.10000
-0.08095
-0.06695
-0.06878
-0.06292
-0.06970
-0.08738
-0.11885
-0.15711
-0.16087
-0.17259
-0.19476
-0.20638
-0.24144
-0.26687
-0.27856
-0.27630
-0.28251
-0.27422
-0.27748
-0.27755
-0.27169
-0.26690
-0.26805
-0.29111
-0.28897
-0.27999
-0.29304
-0.29340
-0.29001
-0.27324
-0.25579
-0.26264
-0.29141
-0.36592
-0.45975
-0.51866
-0.41345
-0.06999
0.47585
1.06701
1.47620
1.42873
0.83701
0.04465
-0.49329
-0.65631
-0.62590
-0.58855
-0.66184
-0.80383
-0.93305
-1.00766
-1.01620
-0.96078
-0.86037
-0.71719
-0.57233
-0.44064
-0.37105
-0.32327
-0.29696
-0.26673
-0.26292
-0.25208
-0.24106
-0.22580
-0.20411
-0.19311
-0.19254
-0.20682
-0.19774
-0.18137
-0.16406
-0.15918
-0.16003
-0.16719
-0.18494
-0.18515
-0.18311
-0.15216
-0.12084
-0.12076
-0.11467
-0.11941
-0.12547
-0.11954
-0.10446
-0.08902
-0.06795
-0.06643
-0.07363
-0.06797
-0.04633
-0.02534
-0.01652
-0.01114
-0.01574
0.00775
0.00773
0.01907
0.01573
0.02442
0.06269
0.09561
0.14081
0.14663
0.13660
0.13090
0.13861
0.14969
0.15997
0.20022
0.20466
0.22215
0.24230
0.23860
0.25103
0.26185
0.26829
0.29242
0.32738
0.34053
0.35465
0.34600
0.33653
0.31681
0.31030
0.30620
0.29568
0.29408
0.29698
0.27482
0.24825
0.21844
0.16970
0.13004
0.11521
0.10039
0.07603
0.06168
0.04050
0.01424
-0.02873
-0.07009
-0.08468
-0.09958
-0.09450
-0.09084
-0.11449
-0.12547
-0.13208
-0.14417
-0.15158
-0.15820
-0.16229
-0.14237
-0.14255
-0.14356
-0.14785
-0.15422
-0.15707
-0.15242
-0.14253
-0.13375
-0.13215
-0.11594
-0.12113
-0.13168
-0.12908
-0.13578
-0.13398
-0.12745
-0.11855
-0.11966
-0.13272
-0.14274
-0.15907
-0.16887
-0.16487
-0.15376
-0.14413
-0.14959
-0.16467
-0.17154
-0.18593
-0.19947
-0.20303
-0.20508
-0.18242
-0.17339
-0.17870
-0.19704
-0.21824
-0.22314
-0.22583
-0.22426
-0.21291
-0.21270
-0.21477
-0.20125
-0.21677
-0.22834
-0.22596
-0.22229
-0.23161
-0.22367
-0.22200
-0.22623
-0.22353
-0.23062
-0.23714
-0.24401
-0.24687
-0.23471
-0.24219
-0.24633
-0.23132
-0.24237
-0.24498
-0.23531
-0.23044
-0.19509
-0.16456
-0.15884
-0.15508
-0.14259
-0.13378
-0.10984
-0.09146
-0.07645
-0.08720
-0.09811
-0.10015
-0.13923
-0.15970
-0.18159
-0.20401
-0.22689
-0.24120
-0.25846
-0.27076
-0.28156
-0.28773
-0.30283
-0.30325
-0.30450
-0.29398
-0.29083
-0.29492
-0.30606
-0.30171
-0.31162
-0.32686
-0.33533
-0.32352
-0.31343
-0.31180
-0.29610
-0.30218
-0.31757
-0.35881
-0.42275
-0.51557
-0.57222
-0.47007
-0.15576
0.35453
0.92178
1.37646
1.46881
1.05045
0.34389
-0.24544
-0.50709
-0.55204
-0.55190
-0.63023
-0.78866
-0.95548
-1.06576
-1.08905
-1.05411
-0.98988
-0.90485
-0.78993
-0.67037
-0.55739
-0.45013
-0.39296
-0.34465
-0.32030
-0.31763
-0.31534
-0.30894
-0.29288
-0.28071
-0.26553
-0.25668
-0.24711
-0.24852
-0.23937
-0.24533
-0.25398
-0.24104
-0.23286
-0.22221
-0.21765
-0.20235
-0.20969
-0.22137
-0.21517
-0.21839
-0.20786
-0.18299
-0.17835
-0.17181
-0.17210
-0.17283
-0.16265
-0.16612
-0.15174
-0.15030
-0.12557
-0.11258
-0.10852
-0.10125
-0.10190
-0.09342
-0.08991
-0.06936
-0.05976
-0.03786
-0.02002
-0.02712
-0.01541
-0.00149
0.01262
0.03919
0.06500
0.08993
0.10128
0.12055
0.13030
0.13246
0.15577
0.16215
0.18488
0.20653
0.21705
0.22997
0.23508
0.23608
0.23837
0.25939
0.26722
0.28178
0.28911
0.27166
0.26174
0.24228
0.21719
0.20037
0.18179
0.17341
0.14817
0.11162
0.08137
0.03214
-0.01419
-0.04581
-0.06554
-0.08683
-0.11762
-0.13437
-0.15540
-0.19110
-0.20560
-0.22235
-0.22872
-0.23063
-0.23000
-0.22796
-0.23399
-0.23720
-0.24067
-0.24038
-0.24993
-0.23284
-0.22711
-0.22199
-0.21120
-0.21689
-0.21757
-0.22262
-0.22333
-0.21608
-0.20312
-0.19588
-0.19051
-0.20537
-0.22204
-0.21841
-0.21254
-0.21749
-0.22045
-0.20960
-0.21620
-0.21811
-0.22991
-0.23646
-0.25049
-0.26182
-0.25152
-0.23806
-0.23895
-0.24003
-0.25030
-0.25457
-0.26666
-0.26794
-0.26898
-0.27281
-0.26702
-0.26625
-0.27346
-0.27545
-0.28668
-0.28855
-0.28559
-0.29505
-0.28191
-0.27610
-0.27799
-0.28647
-0.29404
-0.30226
-0.30653
-0.30665
-0.29130
-0.26959
-0.28405
-0.29417
-0.29651
-0.30999
-0.31297
-0.29953
-0.29533
-0.29862
-0.28589
-0.29228
-0.29629
-0.30558
-0.31769
-0.30953
-0.30230
-0.28834
-0.28170
-0.28945
-0.29216
-0.29556
-0.30717
-0.30210
-0.29295
-0.26585
-0.24559
-0.23567
-0.22103
-0.22720
-0.22726
-0.21705
-0.20354
-0.17488
-0.15741
-0.12911
-0.10808
-0.10902
-0.12296
-0.13541
-0.15265
-0.16370
-0.16092
-0.16946
-0.18950
-0.23328
-0.26320
-0.28605
-0.30547
-0.30974
-0.32108
-0.31859
-0.30978
-0.32169
-0.33460
-0.32911
-0.33567
-0.34951
-0.33299
-0.30961
-0.31535
-0.32304
-0.33706
-0.33457
-0.33477
-0.34452
-0.32873
-0.32635
-0.33098
-0.36512
-0.43391
-0.53812
-0.61339
-0.54377
-0.23890
0.25028
0.83141
1.31924
1.53082
1.27068
0.60775
-0.08121
-0.48206
-0.58186
-0.57645
-0.60528
-0.75464
-0.93822
-1.09055
-1.16647
-1.13556
-1.04826
-0.90985
-0.76999
-0.63867
-0.52732
-0.44652
-0.39323
-0.37153
-0.35887
-0.32928
-0.30501
-0.29478
-0.29529
-0.29242
-0.29632
-0.30615
-0.28473
-0.26852
-0.26546
-0.25640
-0.26286
-0.25825
-0.26526
-0.25576
-0.24478
-0.21731
-0.21104
-0.20491
-0.20580
-0.20851
-0.20084
-0.19859
-0.19396
-0.18088
-0.15726
-0.14449
-0.14511
-0.14540
-0.14291
-0.14233
-0.12443
-0.10467
-0.08314
-0.06370
-0.04714
-0.03468
-0.03223
-0.02502
-0.00919
0.00258
0.01818
0.04390
0.07091
0.09804
0.10595
0.11527
0.12474
0.15691
0.17252
0.19342
0.22214
0.24914
0.25682
0.26340
0.26173
0.27643
0.29249
0.31442
0.33598
0.34635
0.35559
0.35497
0.35300
0.33883
0.34465
0.34413
0.34773
0.33221
0.31003
0.28089
0.23036
0.19826
0.18240
0.16254
0.13239
0.10885
0.08031
0.05519
0.02877
-0.00508
-0.03493
-0.05937
-0.07562
-0.09437
-0.12564
-0.13412
-0.14710
-0.15322
-0.17189
-0.17231
-0.18272
-0.17049
-0.16681
-0.17072
-0.18003
-0.19944
-0.20045
-0.21228
-0.21049
-0.19879
-0.18990
-0.19027
-0.19499
-0.17773
-0.19192
-0.21053
-0.20747
-0.19671
-0.18560
-0.20443
-0.20097
-0.20530
-0.21780
-0.21584
-0.20757
-0.20011
-0.19150
-0.18519
-0.18522
-0.19820
-0.19938
-0.20785
-0.20578
-0.20288
-0.19622
-0.19530
-0.21997
-0.21855
-0.21785
-0.23146
-0.22994
-0.23196
-0.24608
-0.24544
-0.24589
-0.24915
-0.25848
-0.26724
-0.27890
-0.26238
-0.24629
-0.23655
-0.23298
-0.26026
-0.27417
-0.29279
-0.29629
-0.28460
-0.27633
-0.26069
-0.25757
-0.26330
-0.27436
-0.27706
-0.28266
-0.27310
-0.26474
-0.26049
-0.25783
-0.27539
-0.28827
-0.29777
-0.29450
-0.29395
-0.27923
-0.28024
-0.27627
-0.26992
-0.26017
-0.25174
-0.26387
-0.28531
-0.28981
-0.28476
-0.26512
-0.24765
-0.23610
-0.22002
-0.20189
-0.20936
-0.20723
-0.18175
-0.16058
-0.12673
-0.09992
-0.08173
-0.08896
-0.11901
-0.13770
-0.13821
-0.14310
-0.15213
-0.17846
-0.20251
-0.23757
-0.27288
-0.29915
-0.32067
-0.32194
-0.30278
-0.27794
-0.28666
-0.30010
-0.31636
-0.33086
-0.31887
-0.30540
-0.30034
-0.30016
-0.30290
-0.31071
-0.31170
-0.31149
-0.30031
-0.30626
-0.33750
-0.39743
-0.48922
-0.52071
-0.36551
0.02766
0.57871
1.15297
1.47658
1.31284
0.67732
-0.07765
-0.54732
-0.67670
-0.63466
-0.61340
-0.69549
-0.83339
-0.97329
-1.04345
-1.04466
-1.02222
-0.95695
-0.84853
-0.71547
-0.57639
-0.46039
-0.35857
-0.32472
-0.31313
-0.32084
-0.31729
-0.29317
-0.27250
-0.25515
-0.25953
-0.26153
-0.26395
-0.25803
-0.24921
-0.23280
-0.23893
-0.24421
-0.21388
-0.21427
-0.21482
-0.21602
-0.22389
-0.21301
-0.19643
-0.18049
-0.17573
-0.16594
-0.16935
-0.15448
-0.15453
-0.16177
-0.15709
-0.14942
-0.12675
-0.11815
-0.11535
-0.10523
-0.11000
-0.09334
-0.09885
-0.07083
-0.04586
-0.01685
0.00313
-0.00606
-0.01018
-0.02216
-0.00566
0.01125
0.02337
0.04561
0.05380
0.07580
0.11274
0.12071
0.12812
0.15172
0.16011
0.16186
0.18054
0.20019
0.22063
0.22862
0.22868
0.22361
0.22849
0.25523
0.28825
0.31488
0.32943
0.31716
0.29312
0.28036
0.26735
0.26336
0.24812
0.24014
0.22796
0.20809
0.19127
0.15296
0.12297
0.10783
0.07236
0.02564
-0.00699
-0.03639
-0.06187
-0.07477
-0.09177
-0.11171
-0.12793
-0.14316
-0.15085
-0.15252
-0.15796
-0.19027
-0.19256
-0.20850
-0.20890
-0.19561
-0.17923
-0.18609
-0.16842
-0.16049
-0.17908
-0.17946
-0.17780
-0.17205
-0.17023
-0.16555
-0.15890
-0.16727
-0.17379
-0.18111
-0.18883
-0.17956
-0.16589
-0.16914
-0.17157
-0.18389
-0.20242
-0.20753
-0.20886
-0.21269
-0.19289
-0.20287
-0.20577
-0.21140
-0.22293
-0.23272
-0.24741
-0.23569
-0.22634
-0.22862
-0.23428
-0.24068
-0.27009
-0.26732
-0.27820
-0.26940
-0.26147
-0.25535
-0.25336
-0.25552
-0.26914
-0.27710
-0.29217
-0.30170
-0.28348
-0.28056
-0.27210
-0.27182
-0.27811
-0.28764
-0.29323
-0.29944
-0.28814
-0.28117
-0.27961
-0.27392
-0.27400
-0.28043
-0.28291
-0.28045
-0.26538
-0.24738
-0.22725
-0.20459
-0.20218
-0.21098
-0.20260
-0.18006
-0.15333
-0.12896
-0.10905
-0.10697
-0.12846
-0.14778
-0.17595
-0.20278
-0.23128
-0.25347
-0.27910
-0.29034
-0.31046
-0.32459
-0.34234
-0.35405
-0.35656
-0.36078
-0.34958
-0.34619
-0.35713
-0.36425
-0.36993
-0.37479
-0.39224
-0.38539
-0.36828
-0.37374
-0.36640
-0.37257
-0.37816
-0.42604
-0.50954
-0.60650
-0.63889
-0.48841
-0.13503
0.40032
0.96977
1.33706
1.32794
0.84651
0.13888
-0.39777
-0.61088
-0.62947
-0.64681
-0.75590
-0.91614
-1.05877
-1.14979
-1.13903
-1.09027
-0.98540
-0.86099
-0.73615
-0.62426
-0.54156
-0.48654
-0.45752
-0.43587
-0.40669
-0.40658
-0.40378
-0.38844
-0.39234
-0.38834
-0.39043
-0.38619
-0.36764
-0.36101
-0.34975
-0.34778
-0.35819
-0.35168
-0.35761
-0.34129
-0.33465
-0.32920
-0.32754
-0.32715
-0.32839
-0.32403
-0.31908
-0.31484
-0.29524
-0.28094
-0.27774
-0.26755
-0.26883
-0.27474
-0.26406
-0.24021
-0.24126
-0.21804
-0.20612
-0.20722
-0.18390
-0.18841
-0.18875
-0.18028
-0.16155
-0.12931
-0.10857
-0.09793
-0.08802
-0.07834
-0.06529
-0.05749
-0.03827
-0.01597
0.01406
0.01934
0.03000
0.04603
0.05080
0.05101
0.05344
0.07177
0.10926
0.11372
0.11626
0.12401
0.12301
0.12960
0.12433
0.13094
0.14037
0.12989
0.11185
0.08629
0.06599
0.04442
0.00573
-0.01112
-0.03115
-0.04976
-0.08453
-0.11362
-0.15644
-0.18897
-0.21228
-0.23894
-0.25659
-0.25975
-0.27292
-0.29245
-0.30609
-0.32793
-0.34010
-0.34415
-0.34403
-0.32760
-0.33990
-0.33904
-0.35133
-0.35650
-0.35580
-0.36471
-0.34671
-0.33735
-0.31797
-0.31104
-0.32474
-0.32055
-0.32637
-0.33528
-0.31246
-0.30372
-0.29415
-0.29051
-0.29109
-0.29326
-0.30780
-0.31249
-0.32369
-0.32556
-0.31178
-0.30724
-0.30754
-0.30864
-0.31804
-0.32640
-0.33156
-0.32210
-0.32667
-0.31974
-0.31312
-0.32214
-0.32781
-0.35466
-0.36083
-0.36010
-0.35304
-0.33712
-0.34494
-0.35416
-0.35155
-0.37381
-0.38300
-0.37326
-0.36910
-0.36024
-0.36772
-0.36503
-0.37021
-0.37073
-0.37915
-0.38648
-0.39052
-0.37879
-0.36190
-0.36708
-0.37408
-0.37086
-0.38046
-0.38763
-0.38561
-0.37817
-0.38026
-0.37449
-0.37350
-0.38272
-0.39419
-0.40053
-0.40046
-0.39458
-0.38781
-0.38538
-0.38449
-0.38812
-0.40440
-0.40174
-0.39666
-0.39149
-0.36666
-0.35544
-0.35075
-0.34265
-0.32829
-0.32509
-0.34366
-0.32157
-0.29812
-0.27434
-0.24489
-0.22488
-0.21806
-0.21324
-0.24377
-0.25607
-0.25433
-0.25562
-0.26430
-0.28404
-0.30766
-0.33413
-0.36408
-0.39889
-0.40487
-0.40330
-0.40753
-0.40668
-0.40403
-0.42270
-0.43134
-0.43201
-0.42568
-0.42670
-0.42572
-0.41318
-0.41236
-0.41563
-0.42785
-0.43493
-0.42750
-0.41797
-0.41437
-0.39974
-0.43309
-0.49762
-0.59376
-0.68019
-0.61157
-0.31084
0.17553
0.73948
1.20704
1.37626
1.07631
0.41324
-0.23474
-0.57222
-0.64689
-0.61682
-0.64362
-0.77354
-0.94909
-1.11764
-1.19245
-1.18663
-1.11662
-1.01149
-0.87382
-0.73709
-0.62984
-0.55543
-0.50823
-0.47359
-0.46073
-0.44076
-0.42115
-0.40537
-0.39895
-0.41919
-0.40972
-0.41780
-0.40926
-0.39650
-0.37060
-0.36406
-0.36516
-0.36564
-0.36814
-0.36745
-0.37137
-0.36644
-0.35239
-0.34283
-0.33825
-0.33611
-0.33300
-0.33532
-0.32120
-0.30592
-0.29670
-0.28635
-0.27839
-0.26407
-0.26127
-0.25888
-0.24388
-0.24094
-0.21093
-0.19164
-0.18778
-0.16485
-0.16148
-0.15161
-0.14251
-0.11813
-0.09171
-0.05681
-0.02366
0.00054
0.00088
0.01292
0.02401
0.04827
0.07597
0.10161
0.12442
0.14614
0.15121
0.15414
0.16508
0.17918
0.18793
0.21473
0.22043
0.22781
0.22480
0.22958
0.23392
0.22644
0.21759
0.20908
0.20520
0.17718
0.14093
0.10016
0.07896
0.03836
0.00376
-0.02138
-0.04809
-0.05664
-0.08902
-0.11094
-0.16099
-0.18290
-0.21156
-0.22555
-0.23271
-0.23469
-0.23947
-0.25595
-0.26943
-0.29589
-0.30505
-0.31569
-0.31119
-0.29457
-0.28667
-0.28978
-0.29428
-0.31213
-0.32584
-0.32714
-0.32134
-0.29665
-0.29313
-0.30018
-0.32065
-0.31640
-0.31065
-0.31463
-0.30774
-0.29392
-0.28939
-0.29417
-0.28199
-0.29414
-0.30812
-0.32179
-0.31906
-0.32067
-0.30651
-0.30422
-0.31975
-0.31784
-0.32026
-0.32606
-0.33612
-0.33380
-0.32699
-0.31329
-0.31855
-0.31307
-0.32776
-0.35127
-0.35934
-0.36203
-0.35091
-0.33587
-0.33739
-0.34175
-0.35423
-0.35266
-0.37090
-0.37890
-0.35985
-0.34575
-0.33455
-0.34803
-0.35910
-0.36738
-0.37210
-0.37101
-0.36598
-0.35419
-0.35878
-0.36352
-0.35948
-0.35317
-0.36717
-0.38647
-0.40110
-0.38690
-0.36808
-0.35923
-0.34951
-0.35323
-0.35669
-0.35289
-0.34693
-0.33594
-0.31882
-0.28483
-0.26536
-0.25784
-0.25079
-0.23711
-0.22309
-0.20600
-0.18641
-0.19216
-0.21636
-0.23799
-0.26358
-0.28791
-0.32055
-0.33611
-0.36072
-0.36478
-0.37017
-0.37631
-0.39288
-0.39886
-0.39724
-0.40124
-0.40127
-0.41297
-0.40726
-0.40513
-0.40122
-0.39875
-0.39609
-0.39120
-0.37799
-0.38935
-0.38621
-0.39790
-0.43802
-0.51141
-0.60584
-0.58798
-0.32867
0.18580
0.81878
1.29933
1.34893
0.80804
-0.02375
-0.61156
-0.81576
-0.78155
-0.73066
-0.78326
-0.91918
-1.05003
-1.11796
-1.11339
-1.03494
-0.91261
-0.76591
-0.63637
-0.52209
-0.44193
-0.40646
-0.37550
-0.37176
-0.37929
-0.38563
-0.36821
-0.34696
-0.32074
-0.30211
-0.29992
-0.30510
-0.31840
-0.30888
-0.31691
-0.30211
-0.29776
-0.29300
-0.28136
-0.26603
-0.26392
-0.25917
-0.25079
-0.23503
-0.23428
-0.23418
-0.23480
-0.24288
-0.24027
-0.23591
-0.21161
-0.17413
-0.15486
-0.15861
-0.16853
-0.18205
-0.19084
-0.17705
-0.14560
-0.12211
-0.09384
-0.09060
-0.09904
-0.10130
-0.08121
-0.06088
-0.02795
-0.00939
-0.01387
-0.01094
0.00310
0.01884
0.04255
0.05255
0.06422
0.08843
0.11138
0.13846
0.14014
0.13751
0.14269
0.14272
0.15806
0.18199
0.20743
0.21638
0.22725
0.21553
0.21058
0.20379
0.19030
0.17944
0.17921
0.18340
0.16468
0.14158
0.10132
0.05128
0.01004
-0.01619
-0.03495
-0.05577
-0.07819
-0.11232
-0.14443
-0.17719
-0.20269
-0.22634
-0.23097
-0.22471
-0.24585
-0.25648
-0.27529
-0.28505
-0.29008
-0.29598
-0.29083
-0.28044
-0.27554
-0.27305
-0.27494
-0.28486
-0.30150
-0.30099
-0.29517
-0.28662
-0.25647
-0.26014
-0.24908
-0.25603
-0.27311
-0.27768
-0.28142
-0.27630
-0.27902
-0.27182
-0.27420
-0.28181
-0.29580
-0.30362
-0.31685
-0.32063
-0.30838
-0.30456
-0.30500
-0.30562
-0.31793
-0.33407
-0.33704
-0.33375
-0.34882
-0.33252
-0.32146
-0.32137
-0.33607
-0.35643
-0.35464
-0.34359
-0.34302
-0.33990
-0.34557
-0.34142
-0.33291
-0.35951
-0.35278
-0.36598
-0.35911
-0.34878
-0.34942
-0.33846
-0.34123
-0.33149
-0.33467
-0.33023
-0.30674
-0.29473
-0.27854
-0.27742
-0.26840
-0.25912
-0.23063
-0.21073
-0.20160
-0.18897
-0.17950
-0.18874
-0.20286
-0.21832
-0.24166
-0.26388
-0.29735
-0.31290
-0.33836
-0.34294
-0.35361
-0.37712
-0.38894
-0.39768
-0.40530
-0.40743
-0.39858
-0.39710
-0.39094
-0.39687
-0.40801
-0.41753
-0.41985
-0.42068
-0.41426
-0.39991
-0.40048
-0.39279
-0.39620
-0.40337
-0.40964
-0.46382
-0.52110
-0.59313
-0.64239
-0.52991
-0.21287
0.29153
0.84783
1.26553
1.37117
1.02298
0.35291
-0.25308
-0.55687
-0.62491
-0.62352
-0.68524
-0.82798
-0.99795
-1.11453
-1.16030
-1.13160
-1.05652
-0.94677
-0.83264
-0.70268
-0.59002
-0.50907
-0.44795
-0.42122
-0.41541
-0.40929
-0.41009
-0.40262
-0.39229
-0.39007
-0.37625
-0.35784
-0.34701
-0.35291
-0.35873
-0.36017
-0.36751
-0.35828
-0.33725
-0.33027
-0.32209
-0.31626
-0.31571
-0.33032
-0.33762
-0.31581
-0.29872
-0.28254
-0.27394
-0.27815
-0.27436
-0.25516
-0.25557
-0.24173
-0.23293
-0.21491
-0.18965
-0.18340
-0.17511
-0.16983
-0.17039
-0.15761
-0.13089
-0.10256
-0.07978
-0.06753
-0.05681
-0.03021
-0.01422
-0.00225
0.03592
0.05187
0.07353
0.10339
0.12708
0.14169
0.14173
0.15526
0.17082
0.18498
0.20095
0.21593
0.23138
0.23531
0.24105
0.23308
0.21943
0.22096
0.21439
0.20687
0.17555
0.13848
0.10847
0.07307
0.03456
-0.00620
-0.02924
-0.05087
-0.08295
-0.11673
-0.14523
-0.17253
-0.21217
-0.21255
-0.22949
-0.23715
-0.23710
-0.25112
-0.27526
-0.28558
-0.29426
-0.30733
-0.29883
-0.28412
-0.28210
-0.28922
-0.29358
-0.30238
-0.30190
-0.30359
-0.29948
-0.29244
-0.27554
-0.26969
-0.27554
-0.27774
-0.29295
-0.29730
-0.29264
-0.28273
-0.27229
-0.26795
-0.26111
-0.27692
-0.28795
-0.28947
-0.29716
-0.29246
-0.28095
-0.28596
-0.29360
-0.29170
-0.30496
-0.31697
-0.31700
-0.31587
-0.31437
-0.30569
-0.31719
-0.31965
-0.30556
-0.32744
-0.33590
-0.33841
-0.34180
-0.32912
-0.32523
-0.32280
-0.33636
-0.33861
-0.34710
-0.35607
-0.34949
-0.33758
-0.32967
-0.33347
-0.33895
-0.35272
-0.35097
-0.34873
-0.35831
-0.36032
-0.34869
-0.34618
-0.35045
-0.35194
-0.35544
-0.36411
-0.36493
-0.35794
-0.35570
-0.35910
-0.35423
-0.35925
-0.36760
-0.38337
-0.37232
-0.35529
-0.36678
-0.35089
-0.34448
-0.33687
-0.34549
-0.35222
-0.36115
-0.35707
-0.35189
-0.33663
-0.32529
-0.30728
-0.29757
-0.29170
-0.29440
-0.29102
-0.26792
-0.24130
-0.22270
-0.20292
-0.17879
-0.17469
-0.18523
-0.18323
-0.19175
-0.19931
-0.21313
-0.22810
-0.24485
-0.27056
-0.29958
-0.32940
-0.35487
-0.36961
-0.36263
-0.36903
-0.36584
-0.37947
-0.38526
-0.39295
-0.39818
-0.38494
-0.38315
-0.37513
-0.39065
-0.39135
-0.38504
-0.40060
-0.39248
-0.38872
-0.38588
-0.39431
-0.42491
-0.49711
-0.60314
-0.64136
-0.47833
-0.09804
0.45986
1.04110
1.40773
1.37690
0.84820
0.11749
-0.42013
-0.62400
-0.62822
-0.61532
-0.69810
-0.87506
-1.03358
-1.14759
-1.17439
-1.12646
-1.02028
-0.88189
-0.74774
-0.62814
-0.53668
-0.47022
-0.44118
-0.42862
-0.41504
-0.39332
-0.37152
-0.36176
-0.35873
-0.35068
-0.36309
-0.36392
-0.36150
-0.35825
-0.33530
-0.31572
-0.31837
-0.32034
-0.32390
-0.32076
-0.32187
-0.31817
-0.30777
-0.29632
-0.28768
-0.27889
-0.28583
-0.27915
-0.26507
-0.25278
-0.23654
-0.22792
-0.23186
-0.21471
-0.21800
-0.21327
-0.20228
-0.18779
-0.16715
-0.15753
-0.14601
-0.13558
-0.12484
-0.12881
-0.14974
-0.11809
-0.07536
-0.04024
-0.00172
0.00229
0.01084
0.01066
0.00767
0.02360
0.03912
0.06065
0.09567
0.13199
0.14714
0.16929
0.16842
0.17390
0.18013
0.20449
0.21889
0.23622
0.25125
0.25794
0.25860
0.27194
0.28367
0.28772
0.28080
0.28424
0.26274
0.25099
0.23365
0.20761
0.17772
0.16036
0.14908
0.12609
0.09009
0.04935
0.01232
-0.01136
-0.03156
-0.04427
-0.06907
-0.08823
-0.10420
-0.12643
-0.15036
-0.18655
-0.20504
-0.22987
-0.24072
-0.21966
-0.22455
-0.22692
-0.24043
-0.24595
-0.26212
-0.28013
-0.28817
-0.28455
-0.28909
-0.27410
-0.27070
-0.27149
-0.26370
-0.26625
-0.27617
-0.26832
-0.26977
-0.25411
-0.23951
-0.25280
-0.25466
-0.27846
-0.28944
-0.28738
-0.28078
-0.27625
-0.28115
-0.27954
-0.27990
-0.28160
-0.28507
-0.27806
-0.29504
-0.29293
-0.29303
-0.29729
-0.30125
-0.31110
-0.31640
-0.31515
-0.30656
-0.29944
-0.30486
-0.30253
-0.30395
-0.32248
-0.32809
-0.33540
-0.32451
-0.32092
-0.32405
-0.32530
-0.32401
-0.31739
-0.33070
-0.33551
-0.35602
-0.35370
-0.35668
-0.35115
-0.34863
-0.34222
-0.34239
-0.35298
-0.35657
-0.36074
-0.33702
-0.33170
-0.34578
-0.35892
-0.35874
-0.35350
-0.34785
-0.34478
-0.32496
-0.32772
-0.33392
-0.33753
-0.34000
-0.33446
-0.32247
-0.30558
-0.29119
-0.27111
-0.25642
-0.23021
-0.22421
-0.21159
-0.19828
-0.18163
-0.16379
-0.15859
-0.16382
-0.17734
-0.19551
-0.22651
-0.24477
-0.28146
-0.30719
-0.33398
-0.34903
-0.35012
-0.34855
-0.33803
-0.35086
-0.37205
-0.37856
-0.37371
-0.36330
-0.34507
-0.35200
-0.35050
-0.37217
-0.38215
-0.38904
-0.37766
-0.36612
-0.35413
-0.36253
-0.36323
-0.37965
-0.42075
-0.49738
-0.58430
-0.57361
-0.36448
0.06977
0.65339
1.18955
1.44982
1.22347
0.53532
-0.21904
-0.65810
-0.76726
-0.71988
-0.69048
-0.76696
-0.91163
-1.03299
-1.08348
-1.09953
-1.05586
-0.97098
-0.86818
-0.74480
-0.63837
-0.54604
-0.46660
-0.40095
-0.35395
-0.33903
-0.33478
-0.33461
-0.32890
-0.31827
-0.31742
-0.31536
-0.30174
-0.28991
-0.27639
-0.27540
-0.29407
-0.31072
-0.31877
-0.30084
-0.26862
-0.24434
-0.23462
-0.23232
-0.24624
-0.25121
-0.25305
-0.24978
-0.24562
-0.23281
-0.22061
-0.20615
-0.19078
-0.16939
-0.17089
-0.16300
-0.16702
-0.16737
-0.15148
-0.14119
-0.13574
-0.12980
-0.12717
-0.12166
-0.11126
-0.06931
-0.03915
-0.03523
-0.03468
-0.03554
-0.03156
-0.01762
0.00770
0.03544
0.05192
0.07171
0.07861
0.08911
0.10418
0.11196
0.11943
0.12761
0.13914
0.16322
0.19099
0.20585
0.21833
0.22040
0.23280
0.23882
0.25729
0.26035
0.24253
0.23030
0.19755
0.16989
0.13365
0.11154
0.08742
0.07091
0.04591
0.02570
-0.01899
-0.06103
-0.09451
-0.12326
-0.15056
-0.16228
-0.15982
-0.18647
-0.20558
-0.22471
-0.24550
-0.26696
-0.25335
-0.23904
-0.23839
-0.23505
-0.24643
-0.26093
-0.26913
-0.25956
-0.25161
-0.24438
-0.22902
-0.22474
-0.23086
-0.22633
-0.23618
-0.23882
-0.24866
-0.24036
-0.23380
-0.22437
-0.22860
-0.23942
-0.25318
-0.25616
-0.27181
-0.27421
-0.27097
-0.26525
-0.26632
-0.27872
-0.27913
-0.29250
-0.30510
-0.30921
-0.31202
-0.31213
-0.30715
-0.30538
-0.30606
-0.32444
-0.33074
-0.33335
-0.32784
-0.31836
-0.31784
-0.32271
-0.33161
-0.34051
-0.34821
-0.35003
-0.34461
-0.36023
-0.34671
-0.34633
-0.34926
-0.35626
-0.36479
-0.36198
-0.35905
-0.34729
-0.32324
-0.31348
-0.30855
-0.30075
-0.29322
-0.28986
-0.28295
-0.26269
-0.24695
-0.22449
-0.20212
-0.18298
-0.17480
-0.18331
-0.19926
-0.22075
-0.22762
-0.22771
-0.24392
-0.27162
-0.31115
-0.34166
-0.36468
-0.37469
-0.37562
-0.38366
-0.37373
-0.38799
-0.39711
-0.40164
-0.41409
-0.40935
-0.40448
-0.40121
-0.39606
-0.38901
-0.39028
-0.40223
-0.39882
-0.40191
-0.39738
-0.39448
-0.41993
-0.47314
-0.57367
-0.65188
-0.59042
-0.30462
0.19679
0.78257
1.27219
1.41980
1.07836
0.37695
-0.26146
-0.58905
-0.65763
-0.64098
-0.69699
-0.84006
-1.00285
-1.13241
-1.18428
-1.17251
-1.11808
-1.00991
-0.87623
-0.74023
-0.62490
-0.54034
-0.48650
-0.46392
-0.45697
-0.43454
-0.43877
-0.41671
-0.39240
-0.39468
-0.38798
-0.39814
-0.39409
-0.38051
-0.35978
-0.36647
-0.36399
-0.34787
-0.34910
-0.35653
-0.35849
-0.36447
-0.36129
-0.34079
-0.33173
-0.31358
-0.31438
-0.32548
-0.32218
-0.31175
-0.30488
-0.28649
-0.27894
-0.27979
-0.26747
-0.25873
-0.25488
-0.24043
-0.24886
-0.22829
-0.21594
-0.19475
-0.19167
-0.17189
-0.16012
-0.15436
-0.14602
-0.11778
-0.09945
-0.06946
-0.05383
-0.05285
-0.04418
-0.03299
-0.01058
0.01060
0.03453
0.07028
0.07413
0.09161
0.11006
0.10676
0.09642
0.11766
0.12727
0.14987
0.17039
0.18413
0.18204
0.17061
0.18542
0.18204
0.18786
0.18328
0.16632
0.15657
0.13590
0.09923
0.06890
0.04357
0.01353
-0.01822
-0.03498
-0.06357
-0.10494
-0.13891
-0.15587
-0.19362
-0.22352
-0.23419
-0.24300
-0.24940
-0.27122
-0.28747
-0.30482
-0.31892
-0.33911
-0.34799
-0.33309
-0.33204
-0.32074
-0.32827
-0.33636
-0.34997
-0.35744
-0.34821
-0.33952
-0.32332
-0.32823
-0.32703
-0.31770
-0.32397
-0.32865
-0.32525
-0.32373
-0.31826
-0.30268
-0.29713
-0.30345
-0.31599
-0.32306
-0.32508
-0.32263
-0.31704
-0.31700
-0.32716
-0.31750
-0.33092
-0.34226
-0.35158
-0.35366
-0.34099
-0.33404
-0.33864
-0.33663
-0.34153
-0.35630
-0.37603
-0.36667
-0.36454
-0.36071
-0.35167
-0.35357
-0.35667
-0.36747
-0.38748
-0.38479
-0.38897
-0.36935
-0.36003
-0.36658
-0.35962
-0.37078
-0.38104
-0.38522
-0.38136
-0.38138
-0.37174
-0.36539
-0.37460
-0.38052
-0.37892
-0.37841
-0.38647
-0.38729
-0.37758
-0.36647
-0.36128
-0.36654
-0.37603
-0.38193
-0.39199
-0.37834
-0.36499
-0.36076
-0.36794
-0.36620
-0.36630
-0.37081
-0.36993
-0.36549
-0.33889
-0.32623
-0.31057
-0.29284
-0.28782
-0.29689
-0.29356
-0.27511
-0.24560
-0.21498
-0.19576
-0.17801
-0.18497
-0.20762
-0.22620
-0.24835
-0.25646
-0.25417
-0.26712
-0.29468
-0.32726
-0.36022
-0.38402
-0.40859
-0.40514
-0.39329
-0.39175
-0.37221
-0.38790
-0.39577
-0.40104
-0.41102
-0.41433
-0.41511
-0.39546
-0.38693
-0.38249
-0.38778
-0.39190
-0.40824
-0.41238
-0.43460
-0.49057
-0.58027
-0.63509
-0.53423
-0.19729
0.33532
0.91602
1.33773
1.33437
0.84775
0.11575
-0.43880
-0.64994
-0.66326
-0.66901
-0.75385
-0.92723
-1.08082
-1.16333
-1.18584
-1.11613
-1.01545
-0.88113
-0.75099
-0.62988
-0.53605
-0.46317
-0.43179
-0.41942
-0.41555
-0.40555
-0.38407
-0.38128
-0.38423
-0.38491
-0.38204
-0.37268
-0.34876
-0.33311
-0.33990
-0.33672
-0.33274
-0.32565
-0.31324
-0.31623
-0.31382
-0.31659
-0.31026
-0.29635
-0.29667
-0.28169
-0.26999
-0.24465
-0.25146
-0.24959
-0.25531
-0.26813
-0.24492
-0.22693
-0.19612
-0.18688
-0.17841
-0.18428
-0.17434
-0.17177
-0.15438
-0.14057
-0.11393
-0.08035
-0.06902
-0.05666
-0.05211
-0.04771
-0.02770
-0.00148
0.02723
0.07151
0.10537
0.12478
0.13290
0.12391
0.13693
0.15915
0.17669
0.20781
0.21720
0.23094
0.23459
0.24389
0.24762
0.24979
0.25840
0.27410
0.28916
0.28596
0.27593
0.24601
0.22562
0.20317
0.17436
0.15145
0.13356
0.11804
0.09696
0.06078
0.01962
-0.01191
-0.04043
-0.06718
-0.08031
-0.10558
-0.13348
-0.15430
-0.17749
-0.18878
-0.20380
-0.21237
-0.22540
-0.23986
-0.25139
-0.27158
-0.25982
-0.27428
-0.28701
-0.30494
-0.30038
-0.28518
-0.28693
-0.28862
-0.29032
-0.28798
-0.29942
-0.29342
-0.29736
-0.29699
-0.28851
-0.28438
-0.28794
-0.31612
-0.31397
-0.30643
-0.30407
-0.30180
-0.28673
-0.28253
-0.28829
-0.30415
-0.31965
-0.33333
-0.31757
-0.30673
-0.30609
-0.31801
-0.33324
-0.32579
-0.31325
-0.31267
-0.31181
-0.33155
-0.33806
-0.33176
-0.33722
-0.32356
-0.31910
-0.33866
-0.34355
-0.35145
-0.34969
-0.32934
-0.31694
-0.32926
-0.35277
-0.37149
-0.37550
-0.36931
-0.35338
-0.35330
-0.34006
-0.33814
-0.35354
-0.36803
-0.38329
-0.36796
-0.34652
-0.32572
-0.32052
-0.33785
-0.34389
-0.35628
-0.35063
-0.34246
-0.34033
-0.33108
-0.31052
-0.28508
-0.25459
-0.25141
-0.26494
-0.25602
-0.25206
-0.21277
-0.17914
-0.16301
-0.17456
-0.20321
-0.21766
-0.23691
-0.26539
-0.29735
-0.32333
-0.33983
-0.35296
-0.35743
-0.36750
-0.39683
-0.40206
-0.40071
-0.39504
-0.38568
-0.38694
-0.38989
-0.39505
-0.41422
-0.42359
-0.41447
-0.41168
-0.39386
-0.39369
-0.39710
-0.39357
-0.44229
-0.51882
-0.59889
-0.58205
-0.31985
0.18834
0.81369
1.30856
1.39037
0.91450
0.09775
-0.55128
-0.77815
-0.75888
-0.70326
-0.73400
-0.84762
-0.98071
-1.08916
-1.11488
-1.09641
-1.04611
-0.96973
-0.87463
-0.76399
-0.65540
-0.54856
-0.46558
-0.41461
-0.39984
-0.38436
-0.36694
-0.36528
-0.38110
-0.38609
-0.37612
-0.35239
-0.34608
-0.34082
-0.32228
-0.31073
-0.30651
-0.31511
-0.33107
-0.34357
-0.34334
-0.31971
-0.30449
-0.28076
-0.27088
-0.28208
-0.28701
-0.29020
-0.29393
-0.28593
-0.25538
-0.24435
-0.24598
-0.25352
-0.25115
-0.24541
-0.23104
-0.21092
-0.18988
-0.17766
-0.17551
-0.17767
-0.16479
-0.15867
-0.14733
-0.12894
-0.10900
-0.10419
-0.09010
-0.08195
-0.08209
-0.06975
-0.06598
-0.03310
-0.01795
0.00645
0.02504
0.03198
0.03034
0.03360
0.05650
0.05516
0.08577
0.10377
0.11910
0.12890
0.13978
0.14768
0.14944
0.16629
0.16609
0.16929
0.16296
0.14948
0.12461
0.09178
0.05277
0.02351
0.01492
-0.00495
-0.03695
-0.06074
-0.10383
-0.14156
-0.16411
-0.19719
-0.21753
-0.23067
-0.23140
-0.24968
-0.25205
-0.27274
-0.28649
-0.30586
-0.30582
-0.30576
-0.29078
-0.28079
-0.28080
-0.28583
-0.29494
-0.30674
-0.28694
-0.27725
-0.25845
-0.25278
-0.25639
-0.26926
-0.26503
-0.27959
-0.28929
-0.26614
-0.26334
-0.25731
-0.26173
-0.26912
-0.27985
-0.28997
-0.30493
-0.31010
-0.29490
-0.29731
-0.29612
-0.31008
-0.31698
-0.33245
-0.34096
-0.35104
-0.33980
-0.33304
-0.33059
-0.34115
-0.35366
-0.33850
-0.35420
-0.35234
-0.35602
-0.35579
-0.34761
-0.33986
-0.35092
-0.36459
-0.38790
-0.37998
-0.37175
-0.36922
-0.35915
-0.35697
-0.35247
-0.36263
-0.37369
-0.38231
-0.37520
-0.37333
-0.35938
-0.36031
-0.37031
-0.36787
-0.37701
-0.38123
-0.38025
-0.36068
-0.35091
-0.32434
-0.30908
-0.30523
-0.30521
-0.31417
-0.30578
-0.29084
-0.25738
-0.22342
-0.20796
-0.18082
-0.21192
-0.21919
-0.23052
-0.24398
-0.25064
-0.25423
-0.27274
-0.30161
-0.33149
-0.35513
-0.39015
-0.39253
-0.40668
-0.41643
-0.39832
-0.39893
-0.40834
-0.42099
-0.43222
-0.43559
-0.43296
-0.42399
-0.41851
-0.41676
-0.41299
-0.42102
-0.41661
-0.42327
-0.41965
-0.41263
-0.40697
-0.41035
-0.43470
-0.49770
-0.60603
-0.67602
-0.58066
-0.25204
0.28065
0.86955
1.29890
1.32126
0.84137
0.12795
-0.41515
-0.63857
-0.65859
-0.66482
-0.75858
-0.91940
-1.08762
-1.19143
-1.21336
-1.13708
-1.02976
-0.87718
-0.72593
-0.61462
-0.51722
-0.47494
-0.44666
-0.44014
-0.42118
-0.40800
-0.38810
-0.38967
-0.37314
-0.37995
-0.38288
-0.38041
-0.38171
-0.36467
-0.35623
-0.34747
-0.35243
-0.34827
-0.34519
-0.35093
-0.35913
-0.33250
-0.33160
-0.31653
-0.30185
-0.30036
-0.29825
-0.29476
-0.29380
-0.27643
-0.26166
-0.24023
-0.22540
-0.21421
-0.21641
-0.23264
-0.21280
-0.19529
-0.18324
-0.16088
-0.14010
-0.12925
-0.12113
-0.11025
-0.10613
-0.08266
-0.05501
-0.03366
-0.00205
0.01417
0.02597
0.04400
0.05825
0.07299
0.09276
0.11866
0.13413
0.15882
0.17373
0.17036
0.17748
0.18135
0.18911
0.20169
0.22887
0.23180
0.23358
0.22256
0.20714
0.19349
0.17615
0.15725
0.14250
0.13011
0.09388
0.04891
0.01551
-0.02390
-0.06025
-0.08336
-0.10297
-0.12463
-0.14709
-0.17960
-0.21141
-0.23301
-0.24380
-0.25576
-0.26745
-0.26205
-0.27366
-0.27884
-0.29573
-0.31800
-0.32068
-0.33238
-0.32373
-0.31804
-0.31309
-0.30472
-0.30921
-0.33265
-0.32905
-0.31855
-0.32379
-0.30784
-0.29570
-0.29976
-0.29769
-0.29836
-0.31062
-0.30705
-0.30836
-0.31196
-0.30149
-0.28848
-0.29675
-0.30060
-0.30940
-0.31491
-0.31465
-0.30780
-0.30692
-0.31258
-0.31712
-0.32486
-0.32704
-0.32336
-0.34307
-0.35878
-0.34795
-0.32138
-0.31799
-0.32130
-0.33632
-0.34545
-0.34778
-0.34997
-0.34195
-0.33503
-0.33871
-0.34448
-0.34573
-0.35313
-0.36786
-0.36791
-0.36097
-0.35216
-0.34462
-0.34187
-0.34545
-0.35966
-0.38710
-0.37569
-0.36408
-0.35805
-0.35565
-0.35348
-0.35480
-0.37412
-0.37452
-0.37592
-0.36792
-0.35944
-0.35971
-0.35315
-0.34476
-0.34285
-0.35722
-0.35275
-0.35017
-0.32768
-0.30347
-0.29293
-0.29089
-0.27492
-0.27472
-0.27622
-0.26831
-0.22568
-0.19406
-0.16626
-0.15596
-0.16712
-0.19338
-0.21558
-0.24117
-0.25396
-0.25830
-0.26342
-0.28842
-0.31943
-0.34689
-0.36781
-0.37886
-0.37936
-0.36755
-0.37116
-0.36325
-0.36601
-0.36188
-0.37525
-0.38754
-0.38978
-0.39315
-0.39708
-0.37445
-0.36816
-0.37047
-0.38353
-0.38234
-0.39926
-0.43056
-0.48668
-0.57523
-0.62661
-0.51661
-0.20610
0.27749
0.84728
1.29930
1.44856
1.11802
0.44192
-0.20383
-0.54027
-0.60905
-0.61426
-0.66664
-0.79608
-0.97255
-1.10380
-1.17677
-1.16908
-1.09981
-0.98904
-0.85649
-0.71838
-0.60576
-0.50410
-0.44013
-0.42341
-0.39929
-0.39324
-0.39704
-0.37510
-0.36599
-0.35451
-0.34071
-0.33272
-0.33190
-0.34089
-0.34824
-0.33744
-0.32657
-0.31649
-0.30388
-0.30706
-0.30493
-0.31185
-0.31572
-0.31731
-0.31207
-0.29424
-0.27651
-0.26569
-0.25958
-0.24702
-0.26382
-0.26854
-0.26254
-0.24403
-0.22243
-0.20426
-0.20897
-0.20084
-0.19475
-0.20367
-0.18823
-0.16939
-0.13896
-0.11799
-0.10668
-0.10223
-0.08575
-0.08256
-0.07472
-0.05633
-0.03347
-0.01320
0.01830
0.03132
0.04481
0.05691
0.06474
0.07564
0.10679
0.13883
0.15281
0.17711
0.18793
0.18913
0.18416
0.18524
0.18904
0.21608
0.23443
0.25069
0.25691
0.24294
0.24045
0.22617
0.22689
0.21327
0.20969
0.20133
0.17959
0.14742
0.10034
0.07375
0.04102
0.00894
-0.00538
-0.02169
-0.04289
-0.08850
-0.11711
-0.13555
-0.16690
-0.17576
-0.18712
-0.19469
-0.21282
-0.22334
-0.24442
-0.26626
-0.28543
-0.28724
-0.29050
-0.28105
-0.27410
-0.27007
-0.27508
-0.27507
-0.28048
-0.28878
-0.28618
-0.28959
-0.26940
-0.27284
-0.28507
-0.29888
-0.31296
-0.30990
-0.30133
-0.28826
-0.27854
-0.28637
-0.29060
-0.29867
-0.31300
-0.33822
-0.32679
-0.33165
-0.31444
-0.30095
-0.30628
-0.31095
-0.31877
-0.32253
-0.32927
-0.31219
-0.30766
-0.30270
-0.30709
-0.33145
-0.35309
-0.35121
-0.34666
-0.34772
-0.34387
-0.33772
-0.33098
-0.32870
-0.34072
-0.34616
-0.34447
-0.34982
-0.34835
-0.33796
-0.33219
-0.33808
-0.34654
-0.36620
-0.37337
-0.37647
-0.36368
-0.35269
-0.34048
-0.33630
-0.34461
-0.36404
-0.38279
-0.38681
-0.38598
-0.35186
-0.34424
-0.33543
-0.32091
-0.31113
-0.30879
-0.31878
-0.31451
-0.29701
-0.26329
-0.24118
-0.20895
-0.18501
-0.17708
-0.17805
-0.20075
-0.22087
-0.22955
-0.25033
-0.24917
-0.25957
-0.28664
-0.31515
-0.34820
-0.38012
-0.38321
-0.38564
-0.38234
-0.39100
-0.41500
-0.41905
-0.40812
-0.40586
-0.40616
-0.38964
-0.39220
-0.39932
-0.39868
-0.39358
-0.39798
-0.40613
-0.40809
-0.39585
-0.38728
-0.38850
-0.43230
-0.50858
-0.60781
-0.63545
-0.47886
-0.09522
0.43933
0.99113
1.37318
1.35923
0.86651
0.10095
-0.50209
-0.72830
-0.70615
-0.65767
-0.69872
-0.84106
-0.98292
-1.10809
-1.17052
-1.15329
-1.08583
-0.98615
-0.88079
-0.76978
-0.66548
-0.57062
-0.48633
-0.42627
-0.41831
-0.40486
-0.40076
-0.38422
-0.36900
-0.36221
-0.35796
-0.34711
-0.34935
-0.33510
-0.32715
-0.32229
-0.31714
-0.32467
-0.33072
-0.33188
-0.31707
-0.29470
-0.26960
-0.27019
-0.28400
-0.29530
-0.29467
-0.30482
-0.28917
-0.25523
-0.23211
-0.21286
-0.20045
-0.21233
-0.24022
-0.25069
-0.22985
-0.20989
-0.18622
-0.15444
-0.13991
-0.12890
-0.12884
-0.11596
-0.11564
-0.10680
-0.09778
-0.08655
-0.06659
-0.04576
-0.02660
-0.01973
-0.02691
-0.00666
0.03054
0.06854
0.06408
0.06518
0.07838
0.09674
0.09557
0.10349
0.12055
0.13672
0.18493
0.20432
0.21783
0.21385
0.19678
0.17714
0.17404
0.19010
0.17390
0.15848
0.14074
0.09950
0.06685
0.03248
0.00436
-0.02231
-0.03893
-0.07567
-0.10798
-0.12932
-0.17102
-0.19534
-0.21164
-0.22393
-0.22796
-0.23696
-0.25295
-0.26031
-0.27473
-0.29275
-0.30569
-0.30157
-0.28777
-0.28228
-0.27946
-0.28017
-0.28577
-0.28111
-0.29456
-0.28035
-0.27151
-0.26159
-0.26685
-0.27835
-0.26766
-0.28245
-0.28732
-0.30541
-0.29974
-0.29673
-0.29023
-0.28694
-0.29637
-0.31787
-0.32672
-0.32218
-0.32214
-0.33582
-0.32962
-0.33594
-0.34436
-0.34638
-0.35333
-0.36672
-0.36305
-0.35493
-0.36188
-0.35388
-0.36135
-0.36862
-0.38301
-0.37569
-0.37892
-0.38233
-0.37020
-0.37067
-0.37161
-0.37056
-0.38216
-0.38787
-0.39647
-0.38769
-0.37309
-0.38091
-0.37514
-0.37342
-0.38572
-0.38264
-0.39412
-0.37396
-0.35877
-0.34021
-0.32234
-0.31954
-0.32259
-0.31718
-0.30507
-0.28477
-0.26198
-0.22924
-0.20994
-0.20148
-0.22236
-0.24133
-0.26733
-0.29050
-0.30005
-0.31040
-0.32349
-0.35252
-0.37834
-0.41248
-0.43182
-0.43592
-0.44188
-0.43561
-0.42173
-0.42248
-0.42415
-0.43641
-0.44609
-0.44990
-0.44764
-0.44230
-0.44053
-0.44136
-0.43901
-0.44088
-0.44187
-0.44713
-0.45764
-0.46226
-0.49724
-0.57066
-0.65324
-0.69909
-0.56029
-0.18985
0.36731
0.94310
1.31762
1.27237
0.73242
0.01042
-0.50085
-0.68650
-0.70607
-0.71906
-0.81874
-0.98139
-1.12083
-1.21549
-1.21901
-1.17252
-1.09009
-0.96873
-0.82444
-0.70284
-0.59617
-0.52216
-0.49774
-0.48734
-0.48467
-0.46995
-0.45949
-0.43926
-0.42778
-0.40916
-0.40298
-0.41259
-0.41576
-0.41193
-0.40413
-0.39752
-0.39610
-0.37758
-0.37114
-0.37499
-0.37474
-0.37636
-0.37844
-0.36749
-0.35848
-0.33799
-0.34093
-0.32586
-0.32957
-0.33683
-0.32401
-0.32688
-0.30100
-0.28902
-0.28950
-0.27964
-0.28001
-0.28053
-0.27656
-0.26131
-0.24636
-0.23405
-0.21103
-0.19388
-0.18234
-0.17530
-0.17097
-0.16455
-0.13591
-0.11382
-0.08810
-0.08458
-0.06256
-0.04863
-0.04200
-0.01567
-0.00165
0.02123
0.04715
0.05745
0.06449
0.08554
0.08148
0.08023
0.08659
0.10666
0.12618
0.13672
0.14913
0.15946
0.15034
0.14675
0.14836
0.14177
0.13761
0.13948
0.12108
0.09751
0.06305
0.02547
-0.00557
-0.04068
-0.05902
-0.07876
-0.10643
-0.13327
-0.16925
-0.19717
-0.23527
-0.26614
-0.28571
-0.29412
-0.28364
-0.29924
-0.31893
-0.33088
-0.34784
-0.36208
-0.35896
-0.36084
-0.35259
-0.36160
-0.36414
-0.36999
-0.36844
-0.37275
-0.36617
-0.36775
-0.35271
-0.35534
-0.34992
-0.35469
-0.35601
-0.36013
-0.35746
-0.34116
-0.33175
-0.31977
-0.32856
-0.32815
-0.34189
-0.35466
-0.36157
-0.35332
-0.34386
-0.34595
-0.33708
-0.35428
-0.36542
-0.36915
-0.37099
-0.37526
-0.37921
-0.36301
-0.36353
-0.37560
-0.38747
-0.38831
-0.41121
-0.40952
-0.39600
-0.39840
-0.38718
-0.38830
-0.39859
-0.40927
-0.41131
-0.42784
-0.42861
-0.42613
-0.41121
-0.40715
-0.40056
-0.40314
-0.40828
-0.41351
-0.42674
-0.41169
-0.40756
-0.40085
-0.39916
-0.40699
-0.41794
-0.42932
-0.42827
-0.41689
-0.40963
-0.39717
-0.39156
-0.39522
-0.41099
-0.42098
-0.41927
-0.41634
-0.40186
-0.38954
-0.38319
-0.37355
-0.36962
-0.35840
-0.35178
-0.34494
-0.33113
-0.30469
-0.29369
-0.27194
-0.25033
-0.22983
-0.21594
-0.22763
-0.22432
-0.23798
-0.25700
-0.27428
-0.28739
-0.30674
-0.34169
-0.37025
-0.40265
-0.41608
-0.41425
-0.41745
-0.41481
-0.42233
-0.43560
-0.44088
-0.43997
-0.43511
-0.42929
-0.42715
-0.42891
-0.43163
-0.44227
-0.44577
-0.45224
-0.43623
-0.43703
-0.45058
-0.51478
-0.61468
-0.68428
-0.60267
-0.27723
0.27361
0.87285
1.32061
1.33968
0.81614
0.08046
-0.47728
-0.68564
-0.70194
-0.71201
-0.79819
-0.96154
-1.12526
-1.21697
-1.22796
-1.16013
-1.04036
-0.89281
-0.75905
-0.61968
-0.52815
-0.48349
-0.45748
-0.45471
-0.45227
-0.44737
-0.42554
-0.40182
-0.39288
-0.38782
-0.38503
-0.39682
-0.39288
-0.39227
-0.38386
-0.35540
-0.35453
-0.35054
-0.35141
-0.35430
-0.35437
-0.35394
-0.34126
-0.32779
-0.30623
-0.30627
-0.30731
-0.30868
-0.30866
-0.30532
-0.28974
-0.27765
-0.25729
-0.24371
-0.24523
-0.24016
-0.23687
-0.23427
-0.22222
-0.20263
-0.18725
-0.18080
-0.17256
-0.16993
-0.15075
-0.12611
-0.11157
-0.08572
-0.05998
-0.04371
-0.02859
-0.01968
-0.00930
0.00641
0.01536
0.05338
0.08304
0.10805
0.12328
0.13301
0.12745
0.13406
0.13016
0.14124
0.17728
0.21474
0.22269
0.22397
0.21942
0.20157
0.18589
0.18386
0.19149
0.18930
0.17348
0.14982
0.11183
0.07502
0.03891
0.00794
-0.01797
-0.04851
-0.06977
-0.09646
-0.10287
-0.12597
-0.15711
-0.18385
-0.21513
-0.23573
-0.24333
-0.24417
-0.26979
-0.28449
-0.29783
-0.32336
-0.32455
-0.31524
-0.29934
-0.29702
-0.30358
-0.30275
-0.31766
-0.31797
-0.33851
-0.33727
-0.33286
-0.32294
-0.31343
-0.31911
-0.32708
-0.32740
-0.33779
-0.33203
-0.32165
-0.30678
-0.30280
-0.30724
-0.33715
-0.35284
-0.36018
-0.36360
-0.35810
-0.34737
-0.32750
-0.32951
-0.34060
-0.34880
-0.36851
-0.37932
-0.38078
-0.38215
-0.36639
-0.36591
-0.35670
-0.35855
-0.37591
-0.39654
-0.39541
-0.37929
-0.37317
-0.36503
-0.37475
-0.39761
-0.41569
-0.41163
-0.40931
-0.40156
-0.39755
-0.40145
-0.39256
-0.39276
-0.39482
-0.40696
-0.41669
-0.40442
-0.39815
-0.39236
-0.39524
-0.39672
-0.40792
-0.41578
-0.43059
-0.43066
-0.42186
-0.40675
-0.39671
-0.39548
-0.38887
-0.41210
-0.40446
-0.39320
-0.36423
-0.32855
-0.29734
-0.30550
-0.31509
-0.31714
-0.31702
-0.27755
-0.23136
-0.20508
-0.18815
-0.20873
-0.23251
-0.26649
-0.28526
-0.31308
-0.32843
-0.34746
-0.36327
-0.38654
-0.40766
-0.41790
-0.43383
-0.43638
-0.43913
-0.43347
-0.44214
-0.44579
-0.44753
-0.42668
-0.42183
-0.44284
-0.45104
-0.45298
-0.44950
-0.43012
-0.41559
-0.41512
-0.46342
-0.53560
-0.63077
-0.67490
-0.53218
-0.16991
0.37108
0.93841
1.33261
1.28233
0.71575
-0.08369
-0.63690
-0.80398
-0.74574
-0.70547
-0.77703
-0.91411
-1.06097
-1.15964
-1.16676
-1.11745
-1.05649
-0.98097
-0.88361
-0.76617
-0.66468
-0.58512
-0.53023
-0.46776
-0.44517
-0.41419
-0.39171
-0.38599
-0.39771
-0.40246
-0.39128
-0.38011
-0.37634
-0.35978
-0.33611
-0.32994
-0.32748
-0.33908
-0.36422
-0.36128
-0.36262
-0.35745
-0.35225
-0.33042
-0.30686
-0.29139
-0.29597
-0.31090
-0.30711
-0.29062
-0.28208
-0.26974
-0.25352
-0.24832
-0.24362
-0.24413
-0.24289
-0.23221
-0.22988
-0.20876
-0.18829
-0.16793
-0.16608
-0.16816
-0.16621
-0.13839
-0.11044
-0.09252
-0.08564
-0.07543
-0.08289
-0.08152
-0.05769
-0.04471
-0.01418
0.00505
0.03815
0.05817
0.07347
0.08000
0.08153
0.07313
0.08076
0.10387
0.12304
0.16241
0.17008
0.17877
0.17289
0.18920
0.18367
0.17994
0.15460
0.13396
0.12684
0.09330
0.08163
0.05667
0.01419
-0.01404
-0.03148
-0.05878
-0.08809
-0.12454
-0.16012
-0.19524
-0.20923
-0.22973
-0.22877
-0.24524
-0.25859
-0.26187
-0.28110
-0.29621
-0.29581
-0.29678
-0.29190
-0.27443
-0.28427
-0.28560
-0.28165
-0.28450
-0.28297
-0.27374
-0.26054
-0.25243
-0.25332
-0.25088
-0.25759
-0.26840
-0.28986
-0.28229
-0.27314
-0.26776
-0.27161
-0.27714
-0.28662
-0.29770
-0.30695
-0.30589
-0.31408
-0.30783
-0.30212
-0.31026
-0.32284
-0.34479
-0.35068
-0.35215
-0.35596
-0.34596
-0.34674
-0.34653
-0.35540
-0.35655
-0.36702
-0.36885
-0.36786
-0.36502
-0.36075
-0.35420
-0.36180
-0.36320
-0.36375
-0.36876
-0.36466
-0.36737
-0.35868
-0.35734
-0.36321
-0.36201
-0.36788
-0.38740
-0.39324
-0.38421
-0.36954
-0.36487
-0.36185
-0.35051
-0.34864
-0.34689
-0.34262
-0.32339
-0.30469
-0.28866
-0.27344
-0.26706
-0.26512
-0.23790
-0.22757
-0.22287
-0.20210
-0.21466
-0.22142
-0.23283
-0.24908
-0.27072
-0.29316
-0.32019
-0.33107
-0.35304
-0.36561
-0.39157
-0.40330
-0.40581
-0.42479
-0.42155
-0.42303
-0.41854
-0.40550
-0.40513
-0.41678
-0.42598
-0.42928
-0.43253
-0.43659
-0.42919
-0.42833
-0.42324
-0.42373
-0.43118
-0.43542
-0.46691
-0.52841
-0.62071
-0.68176
-0.60022
-0.29079
0.23547
0.83371
1.27831
1.27545
0.74687
0.02330
-0.48735
-0.67209
-0.72183
-0.77057
-0.87452
-1.04123
-1.16016
-1.20083
-1.16399
-1.06523
-0.91996
-0.76943
-0.64628
-0.54618
-0.49384
-0.46266
-0.43395
-0.42091
-0.40711
-0.40483
-0.40883
-0.40336
-0.41631
-0.40444
-0.38560
-0.39536
-0.37642
-0.37021
-0.36919
-0.37240
-0.36948
-0.36396
-0.36219
-0.33884
-0.32641
-0.33104
-0.32265
-0.32057
-0.33177
-0.32226
-0.31704
-0.29478
-0.27789
-0.26626
-0.27480
-0.27240
-0.26306
-0.23696
-0.23059
-0.20880
-0.18679
-0.18154
-0.17720
-0.15937
-0.15678
-0.14638
-0.13102
-0.10076
-0.09041
-0.06288
-0.04213
-0.02788
-0.02722
-0.01289
-0.00213
0.01997
0.05353
0.05532
0.06745
0.08770
0.09112
0.10251
0.09838
0.11432
0.12873
0.14335
0.16543
0.16395
0.16394
0.14396
0.13695
0.11963
0.11498
0.11071
0.08828
0.05990
0.01952
-0.01343
-0.03931
-0.06087
-0.08992
-0.10872
-0.12886
-0.15969
-0.20486
-0.22807
-0.25860
-0.28995
-0.28883
-0.29651
-0.29646
-0.31284
-0.32041
-0.34510
-0.36499
-0.37435
-0.38031
-0.36732
-0.34705
-0.34354
-0.35343
-0.35317
-0.35315
-0.35386
-0.35439
-0.35040
-0.33430
-0.32226
-0.31711
-0.31823
-0.32120
-0.33131
-0.34477
-0.33621
-0.32803
-0.31895
-0.31616
-0.31639
-0.32620
-0.34791
-0.35269
-0.35403
-0.34557
-0.34533
-0.33089
-0.33553
-0.34171
-0.35231
-0.36793
-0.36980
-0.37306
-0.36269
-0.36156
-0.36545
-0.36600
-0.37500
-0.39280
-0.38830
-0.38980
-0.37959
-0.36816
-0.36880
-0.38875
-0.38904
-0.38607
-0.39484
-0.39009
-0.38845
-0.37888
-0.37857
-0.38726
-0.38125
-0.38982
-0.40578
-0.40448
-0.40867
-0.39664
-0.39236
-0.39075
-0.38457
-0.40150
-0.42260
-0.42036
-0.40965
-0.40996
-0.40762
-0.39696
-0.40130
-0.41981
-0.41303
-0.41611
-0.41469
-0.41156
-0.39712
-0.38580
-0.38091
-0.38589
-0.38043
-0.36868
-0.35950
-0.34888
-0.32504
-0.30584
-0.29459
-0.27727
-0.26341
-0.23848
-0.23745
-0.22843
-0.22537
-0.22817
-0.23363
-0.25537
-0.28005
-0.30807
-0.33716
-0.35725
-0.37687
-0.38163
-0.38820
-0.39611
-0.40565
-0.41926
-0.43044
-0.43612
-0.42964
-0.42296
-0.41505
-0.41699
-0.41789
-0.42214
-0.42270
-0.43512
-0.43236
-0.42231
-0.41569
-0.40983
-0.42572
-0.46824
-0.54036
-0.64519
-0.68859
-0.59878
-0.29901
0.19762
0.76229
1.22859
1.38937
1.09802
0.42694
-0.23685
-0.58049
-0.64783
-0.63473
-0.66526
-0.79673
-0.97729
-1.14480
-1.21782
-1.20624
-1.14704
-1.04436
-0.92257
-0.78791
-0.67453
-0.58085
-0.51412
-0.45783
-0.43629
-0.42562
-0.42316
-0.41094
-0.40352
-0.40251
-0.39789
-0.38884
-0.38229
-0.35944
-0.36025
-0.35750
-0.35244
-0.36282
-0.36507
-0.35719
-0.34884
-0.33849
-0.34101
-0.34031
-0.32762
-0.33772
-0.33502
-0.33344
-0.31187
-0.29490
-0.28379
-0.28933
-0.27755
-0.27898
-0.28093
-0.25827
-0.25120
-0.22612
-0.21235
-0.21412
-0.21400
-0.21714
-0.19428
-0.18253
-0.16378
-0.14302
-0.12151
-0.10866
-0.09649
-0.08980
-0.08637
-0.07558
-0.06554
-0.03524
0.00262
0.03215
0.04323
0.06186
0.06839
0.08598
0.10144
0.11561
0.14607
0.16329
0.16837
0.16239
0.16317
0.18002
0.18981
0.20860
0.22948
0.23685
0.24282
0.24425
0.23383
0.21318
0.19491
0.18256
0.16837
0.16833
0.14646
0.11389
0.07775
0.03137
-0.01276
-0.03616
-0.06147
-0.07343
-0.09536
-0.12342
-0.14493
-0.18618
-0.20696
-0.22269
-0.23678
-0.23390
-0.24575
-0.24350
-0.24583
-0.26997
-0.26851
-0.29281
-0.29386
-0.29401
-0.29857
-0.28302
-0.28791
-0.27809
-0.29450
-0.30651
-0.30053
-0.31114
-0.29799
-0.26734
-0.27772
-0.27105
-0.28199
-0.29652
-0.30744
-0.30273
-0.29125
-0.27955
-0.28427
-0.29111
-0.30005
-0.30213
-0.30619
-0.31060
-0.31917
-0.31301
-0.31328
-0.31460
-0.30357
-0.31397
-0.31830
-0.33620
-0.33964
-0.32395
-0.31725
-0.31869
-0.33443
-0.34527
-0.35213
-0.34589
-0.34731
-0.35036
-0.34233
-0.33979
-0.35245
-0.35947
-0.37536
-0.38697
-0.36740
-0.36817
-0.36640
-0.36403
-0.36945
-0.36821
-0.36755
-0.38118
-0.38550
-0.37727
-0.38665
-0.36885
-0.36396
-0.36558
-0.37670
-0.38990
-0.38806
-0.37503
-0.35542
-0.35110
-0.36659
-0.37978
-0.38241
-0.38392
-0.38772
-0.39235
-0.38845
-0.37588
-0.36624
-0.36037
-0.36189
-0.36497
-0.37186
-0.38146
-0.37373
-0.35428
-0.34267
-0.31872
-0.28968
-0.28480
-0.27809
-0.28280
-0.27957
-0.26627
-0.25055
-0.20902
-0.18292
-0.16371
-0.17903
-0.19308
-0.21676
-0.25447
-0.24776
-0.26325
-0.29832
-0.31819
-0.34208
-0.36469
-0.38946
-0.39279
-0.38610
-0.38374
-0.39165
-0.39813
-0.41817
-0.40291
-0.39298
-0.38597
-0.38946
-0.38983
-0.38450
-0.38433
-0.39161
-0.39138
-0.38762
-0.38323
-0.38552
-0.40244
-0.43255
-0.51860
-0.60829
-0.63014
-0.44955
-0.04404
0.52673
1.09617
1.44089
1.34419
0.74499
-0.04091
-0.57667
-0.74565
-0.71973
-0.68769
-0.73635
-0.86267
-1.01621
-1.11598
-1.15183
-1.12777
-1.03699
-0.91178
-0.77850
-0.65003
-0.55554
-0.47241
-0.43523
-0.40240
-0.39492
-0.38008
-0.35919
-0.33959
-0.32955
-0.33051
-0.34406
-0.33529
-0.33711
-0.32207
-0.30174
-0.29536
-0.29191
-0.28661
-0.29466
-0.28678
-0.28495
-0.29057
-0.27344
-0.26958
-0.27060
-0.26512
-0.23283
-0.22831
-0.23357
-0.23035
-0.23097
-0.21444
-0.20704
-0.17647
-0.16220
-0.16389
-0.15565
-0.15700
-0.15499
-0.14115
-0.12699
-0.09496
-0.07701
-0.06540
-0.04902
-0.04933
-0.05780
-0.03694
-0.01524
0.03453
0.05170
0.03929
0.03777
0.04869
0.07270
0.09884
0.11786
0.13067
0.14192
0.15111
0.16091
0.16759
0.17106
0.19016
0.19642
0.21701
0.23397
0.24821
0.23872
0.24149
0.21556
0.19533
0.19405
0.18253
0.17041
0.13887
0.11126
0.06702
0.01564
-0.03213
-0.06381
-0.07995
-0.09098
-0.08936
-0.12903
-0.16679
-0.19827
-0.22030
-0.23358
-0.23276
-0.22982
-0.23834
-0.26410
-0.27950
-0.30073
-0.30765
-0.29120
-0.26717
-0.23644
-0.21943
-0.22197
-0.23860
-0.26757
-0.28678
-0.29106
-0.27050
-0.24980
-0.22572
-0.23003
-0.24280
-0.25388
-0.26779
-0.27029
-0.27915
-0.27687
-0.26113
-0.25748
-0.26492
-0.28101
-0.29241
-0.30643
-0.30794
-0.31419
-0.29905
-0.29965
-0.30224
-0.31141
-0.31449
-0.31971
-0.33673
-0.33839
-0.33084
-0.32606
-0.32386
-0.33254
-0.33566
-0.34990
-0.35970
-0.35621
-0.35109
-0.34134
-0.34170
-0.34607
-0.34463
-0.35543
-0.36807
-0.36764
-0.36540
-0.36075
-0.35098
-0.34550
-0.34836
-0.36916
-0.37205
-0.36460
-0.36445
-0.35968
-0.35344
-0.35347
-0.35458
-0.35779
-0.35635
-0.36241
-0.35068
-0.33721
-0.29560
-0.27930
-0.28186
-0.27684
-0.28619
-0.28414
-0.26310
-0.22796
-0.20008
-0.17912
-0.18269
-0.21287
-0.23225
-0.25114
-0.26631
-0.28355
-0.29358
-0.30700
-0.32733
-0.36802
-0.38258
-0.40646
-0.41938
-0.42077
-0.40409
-0.40249
-0.39907
-0.40323
-0.41720
-0.42808
-0.43574
-0.43834
-0.42253
-0.41184
-0.40567
-0.40700
-0.40935
-0.41839
-0.43687
-0.42615
-0.43802
-0.47457
-0.54044
-0.63704
-0.64957
-0.47842
-0.06996
0.48103
1.01460
1.34494
1.27736
0.73298
0.02070
-0.46244
-0.63907
-0.65767
-0.67479
-0.76592
-0.91777
-1.05344
-1.14205
-1.14871
-1.12820
-1.05638
-0.95897
-0.84547
-0.70640
-0.61127
-0.52932
-0.48374
-0.46627
-0.44877
-0.44942
-0.44527
-0.41894
-0.40612
-0.39088
-0.38320
-0.37923
-0.38048
-0.37951
-0.38886
-0.38031
-0.36537
-0.35033
-0.35004
-0.35423
-0.34773
-0.34584
-0.34840
-0.33447
-0.32005
-0.31010
-0.31015
-0.30969
-0.29990
-0.30081
-0.30190
-0.29522
-0.29260
-0.27071
-0.25302
-0.25296
-0.23218
-0.22947
-0.23593
-0.21471
-0.20375
-0.17946
-0.16120
-0.14968
-0.14487
-0.13208
-0.12665
-0.12567
-0.09695
-0.08192
-0.05340
-0.04192
-0.02255
-0.01684
-0.01018
-0.00052
0.01440
0.03972
0.05963
0.07418
0.08535
0.08767
0.09141
0.08845
0.10565
0.10879
0.12865
0.15332
0.16213
0.17154
0.16648
0.16321
0.15111
0.15055
0.14641
0.12636
0.10347
0.07864
0.05246
0.02536
-0.02054
-0.04864
-0.07576
-0.09029
-0.11462
-0.13872
-0.16580
-0.20223
-0.22549
-0.24830
-0.26330
-0.27434
-0.26659
-0.28388
-0.29899
-0.30506
-0.31456
-0.30987
-0.30766
-0.29601
-0.30096
-0.28792
-0.29258
-0.28515
-0.29883
-0.29890
-0.29206
-0.28608
-0.27422
-0.26452
-0.25926
-0.27056
-0.26832
-0.27664
-0.27117
-0.26343
-0.26921
-0.24937
-0.24592
-0.25239
-0.25608
-0.27098
-0.28035
-0.29037
-0.28163
-0.27652
-0.26738
-0.28283
-0.29756
-0.30365
-0.32014
-0.31543
-0.32335
-0.31135
-0.31816
-0.31700
-0.31900
-0.33723
-0.33635
-0.32825
-0.32231
-0.31719
-0.32275
-0.32315
-0.31936
-0.33198
-0.34884
-0.34616
-0.35335
-0.34759
-0.34123
-0.33739
-0.33854
-0.35095
-0.36137
-0.36220
-0.36541
-0.35925
-0.34157
-0.34014
-0.34051
-0.35330
-0.36841
-0.36457
-0.36082
-0.35971
-0.35636
-0.34522
-0.34211
-0.34898
-0.35579
-0.36051
-0.37565
-0.38228
-0.36678
-0.34395
-0.34317
-0.34776
-0.34474
-0.34151
-0.32381
-0.31690
-0.30468
-0.28453
-0.26521
-0.25064
-0.23674
-0.23283
-0.20847
-0.19284
-0.17071
-0.17268
-0.17253
-0.19203
-0.21824
-0.23676
-0.25755
-0.27849
-0.30572
-0.32314
-0.33594
-0.34602
-0.36333
-0.36606
-0.37427
-0.38697
-0.39025
-0.39547
-0.37199
-0.36076
-0.35891
-0.36736
-0.38462
-0.38972
-0.39390
-0.37905
-0.37168
-0.36582
-0.37219
-0.39125
-0.43265
-0.53733
-0.63187
-0.62036
-0.44917
-0.04617
0.47790
1.02263
1.39448
1.40623
0.95169
0.24269
-0.33477
-0.58254
-0.59453
-0.58846
-0.67513
-0.83367
-1.01829
-1.14011
-1.17503
-1.14543
-1.04482
-0.92649
-0.78630
-0.67245
-0.58712
-0.50563
-0.44398
-0.40924
-0.39607
-0.37273
-0.37534
-0.38352
-0.37840
-0.36047
-0.35983
-0.35269
-0.34331
-0.33202
-0.32102
-0.31879
-0.31828
-0.32351
-0.30866
-0.30747
-0.30602
-0.28385
-0.28374
-0.27921
-0.28233
-0.28789
-0.28910
-0.28066
-0.25544
-0.25062
-0.23352
-0.23345
-0.23141
-0.23408
-0.22832
-0.21945
-0.20410
-0.18882
-0.17873
-0.16845
-0.15954
-0.15862
-0.15517
-0.13587
-0.11987
-0.09980
-0.07000
-0.05994
-0.04435
-0.03279
-0.02935
-0.01693
-0.00528
0.03192
0.05721
0.08418
0.11629
0.13323
0.14312
0.14903
0.16756
0.18006
0.19213
0.22950
0.23387
0.23993
0.25244
0.25305
0.25165
0.26797
0.28042
0.28912
0.29316
0.28105
0.27163
0.24802
0.21708
0.18715
0.15536
0.12197
0.11604
0.09383
0.06646
0.03157
-0.01621
-0.05198
-0.08112
-0.10197
-0.11482
-0.12540
-0.15544
-0.17474
-0.19777
-0.21374
-0.22409
-0.21693
-0.21397
-0.23133
-0.25457
-0.24846
-0.25511
-0.26164
-0.24937
-0.25448
-0.25410
-0.25597
-0.25385
-0.25764
-0.25434
-0.25743
-0.26193
-0.24926
-0.23994
-0.23002
-0.22586
-0.23751
-0.25588
-0.26729
-0.28580
-0.27514
-0.26867
-0.25405
-0.25162
-0.26574
-0.27894
-0.29084
-0.29355
-0.28664
-0.27290
-0.26498
-0.27523
-0.29333
-0.29709
-0.31464
-0.32265
-0.31133
-0.29966
-0.29204
-0.29135
-0.29599
-0.29813
-0.33012
-0.32878
-0.32897
-0.32821
-0.33349
-0.33134
-0.34294
-0.34005
-0.33859
-0.34257
-0.33437
-0.34252
-0.34139
-0.32701
-0.32845
-0.33007
-0.32272
-0.34420
-0.35092
-0.34987
-0.34595
-0.34477
-0.34506
-0.34528
-0.34188
-0.33849
-0.33206
-0.31652
-0.31107
-0.29056
-0.28424
-0.27046
-0.26782
-0.26561
-0.28398
-0.28404
-0.24176
-0.19961
-0.15131
-0.14795
-0.15775
-0.17200
-0.18550
-0.20253
-0.20844
-0.22715
-0.24418
-0.27284
-0.29965
-0.31807
-0.34927
-0.35655
-0.36124
-0.37078
-0.37731
-0.38173
-0.37524
-0.37597
-0.37103
-0.38093
-0.38263
-0.38398
-0.38015
-0.36026
-0.35127
-0.35906
-0.36781
-0.37751
-0.39442
-0.40001
-0.42464
-0.46902
-0.55475
-0.60291
-0.50224
-0.18228
0.31693
0.87860
1.31271
1.39556
0.97421
0.21632
-0.42869
-0.70405
-0.71305
-0.69869
-0.72418
-0.83518
-0.95026
-1.05538
-1.09643
-1.09056
-1.05079
-0.94138
-0.80971
-0.66787
-0.56082
-0.47021
-0.41389
-0.38493
-0.36510
-0.35391
-0.33306
-0.31633
-0.32149
-0.32972
-0.31388
-0.29603
-0.31081
-0.31262
-0.30661
-0.28083
-0.25797
-0.24505
-0.26061
-0.28756
-0.28202
-0.28043
-0.27022
-0.25961
-0.24941
-0.24070
-0.20767
-0.19486
-0.19693
-0.22161
-0.23029
-0.21508
-0.19033
-0.15909
-0.14624
-0.13595
-0.13701
-0.12874
-0.13074
-0.12769
-0.10265
-0.08855
-0.06473
-0.05874
-0.06330
-0.06730
-0.04776
-0.01135
0.03082
0.04543
0.05591
0.07415
0.07741
0.09299
0.09188
0.10736
0.12280
0.14239
0.17091
0.18900
0.19946
0.18942
0.19363
0.20463
0.20717
0.22074
0.23428
0.25026
0.25271
0.25377
0.25754
0.23402
0.20407
0.16370
0.14989
0.13114
0.11384
0.09518
0.06112
0.02438
-0.00754
-0.03839
-0.06768
-0.08731
-0.09792
-0.12060
-0.15583
-0.16314
-0.19356
-0.20170
-0.22513
-0.23407
-0.22870
-0.24561
-0.24383
-0.24949
-0.26225
-0.27879
-0.27183
-0.26649
-0.26037
-0.25103
-0.24649
-0.23895
-0.24601
-0.25361
-0.24563
-0.23902
-0.23323
-0.21732
-0.21246
-0.22333
-0.23440
-0.23899
-0.24349
-0.24404
-0.24056
-0.22836
-0.23084
-0.23930
-0.25866
-0.27221
-0.25454
-0.26020
-0.26664
-0.26196
-0.25772
-0.27650
-0.29718
-0.28908
-0.30172
-0.31973
-0.30588
-0.30210
-0.30423
-0.30879
-0.30482
-0.31052
-0.32439
-0.33605
-0.33370
-0.32028
-0.31231
-0.30245
-0.32249
-0.33509
-0.33331
-0.33783
-0.32936
-0.32951
-0.32504
-0.31547
-0.32184
-0.32802
-0.33269
-0.33138
-0.34083
-0.34730
-0.32877
-0.31785
-0.29327
-0.27825
-0.27393
-0.28164
-0.27094
-0.26465
-0.25791
-0.22441
-0.19620
-0.18237
-0.17215
-0.17793
-0.18092
-0.19129
-0.21445
-0.23174
-0.22567
-0.24567
-0.27330
-0.31039
-0.34165
-0.36139
-0.37583
-0.37327
-0.36692
-0.36776
-0.36823
-0.38160
-0.39385
-0.40640
-0.40404
-0.40609
-0.39284
-0.38287
-0.39917
-0.40381
-0.40949
-0.42667
-0.43047
-0.46400
-0.54478
-0.62006
-0.58685
-0.26738
0.29022
0.91181
1.34293
1.27878
0.68208
-0.05480
-0.52434
-0.68489
-0.69922
-0.74088
-0.87843
-1.02813
-1.13548
-1.16202
-1.10707
-1.00532
-0.87468
-0.73241
-0.62136
-0.52889
-0.46897
-0.44478
-0.41562
-0.39962
-0.39100
-0.39646
-0.39380
-0.39493
-0.37637
-0.36814
-0.35672
-0.34421
-0.34205
-0.34517
-0.34563
-0.35337
-0.35097
-0.33973
-0.33671
-0.32416
-0.31233
-0.30997
-0.31982
-0.31405
-0.31758
-0.30057
-0.27711
-0.26889
-0.26709
-0.27400
-0.26198
-0.26298
-0.26166
-0.24289
-0.22742
-0.21396
-0.20133
-0.18889
-0.17848
-0.18242
-0.17996
-0.16491
-0.15445
-0.12982
-0.11863
-0.09266
-0.08385
-0.07977
-0.06420
-0.05142
-0.02439
0.00115
0.03349
0.05058
0.05731
0.06932
0.07141
0.08574
0.10324
0.11240
0.15049
0.16234
0.17176
0.16554
0.17217
0.18097
0.17988
0.19101
0.21264
0.22627
0.21933
0.21239
0.18947
0.16833
0.14702
0.12408
0.10805
0.09562
0.06571
0.03973
0.00222
-0.03594
-0.07916
-0.09730
-0.11409
-0.14184
-0.16174
-0.17980
-0.20269
-0.24137
-0.26160
-0.26794
-0.27238
-0.28043
-0.28385
-0.29641
-0.30937
-0.30886
-0.32419
-0.31795
-0.32083
-0.31925
-0.29830
-0.29438
-0.28630
-0.29826
-0.31077
-0.32839
-0.30575
-0.29239
-0.27698
-0.27437
-0.28052
-0.27086
-0.27293
-0.27487
-0.27814
-0.27754
-0.27287
-0.26154
-0.26358
-0.27133
-0.27836
-0.29414
-0.29507
-0.29138
-0.28725
-0.28233
-0.28729
-0.29131
-0.31190
-0.31503
-0.32316
-0.31958
-0.32769
-0.32403
-0.31501
-0.32317
-0.33366
-0.33722
-0.34848
-0.35033
-0.33967
-0.34366
-0.33128
-0.32921
-0.34210
-0.34438
-0.34308
-0.34989
-0.34430
-0.34346
-0.32700
-0.32690
-0.33984
-0.35183
-0.35026
-0.35746
-0.36077
-0.35012
-0.35560
-0.35741
-0.35209
-0.35611
-0.36094
-0.34835
-0.35905
-0.34259
-0.31965
-0.30779
-0.30009
-0.29565
-0.28623
-0.29512
-0.27767
-0.27838
-0.25781
-0.24131
-0.20429
-0.17816
-0.16640
-0.16447
-0.16885
-0.17462
-0.18933
-0.20477
-0.21348
-0.23210
-0.26189
-0.28737
-0.31743
-0.35296
-0.36114
-0.36297
-0.36659
-0.36039
-0.36783
-0.37831
-0.39240
-0.40686
-0.39962
-0.39314
-0.38533
-0.37935
-0.38632
-0.39724
-0.40170
-0.41633
-0.39670
-0.37644
-0.37799
-0.38295
-0.39834
-0.43968
-0.53110
-0.62844
-0.63626
-0.47222
-0.09673
0.43884
0.98051
1.37293
1.43983
1.03748
0.33656
-0.26962
-0.55561
-0.58034
-0.56011
-0.61851
-0.76983
-0.96729
-1.12668
-1.19325
-1.18031
-1.11094
-1.00411
-0.87513
-0.74495
-0.63432
-0.55207
-0.48643
-0.45346
-0.41232
-0.39285
-0.37376
-0.35758
-0.36509
-0.36110
-0.35867
-0.34969
-0.34869
-0.33068
-0.32589
-0.32186
-0.32619
-0.32499
-0.33496
-0.32800
-0.31402
-0.29930
-0.28454
-0.27971
-0.28379
-0.29357
-0.30137
-0.28756
-0.26070
-0.25683
-0.24559
-0.23564
-0.22013
-0.23076
-0.22934
-0.22611
-0.21238
-0.18988
-0.17239
-0.17246
-0.15780
-0.15517
-0.14301
-0.12507
-0.12486
-0.10589
-0.07538
-0.05523
-0.04751
-0.03909
-0.02785
-0.02530
-0.00765
0.02671
0.06561
0.08804
0.10642
0.11734
0.11993
0.13881
0.15208
0.17819
0.20948
0.23149
0.25529
0.27650
0.28061
0.28036
0.27454
0.28200
0.29997
0.30014
0.29668
0.27931
0.24032
0.22569
0.20822
0.18170
0.15749
0.13828
0.10469
0.07117
0.04426
0.00110
-0.02633
-0.05942
-0.08606
-0.10572
-0.12998
-0.15761
-0.17673
-0.20053
-0.21321
-0.23354
-0.24557
-0.24486
-0.23643
-0.22234
-0.23478
-0.23743
-0.26361
-0.28501
-0.29126
-0.27592
-0.26329
-0.24903
-0.23707
-0.24168
-0.25473
-0.26452
-0.28108
-0.26698
-0.25386
-0.25756
-0.25414
-0.25524
-0.26562
-0.25636
-0.24448
-0.25161
-0.24800
-0.24864
-0.26666
-0.28346
-0.27855
-0.29289
-0.29956
-0.32572
-0.31343
-0.29069
-0.29178
-0.28629
-0.28264
-0.28567
-0.29586
-0.29268
-0.28745
-0.29320
-0.30537
-0.29280
-0.30365
-0.30715
-0.31592
-0.33641
-0.32362
-0.30927
-0.30460
-0.30611
-0.31393
-0.32145
-0.32207
-0.32574
-0.33802
-0.32930
-0.33359
-0.32959
-0.31316
-0.30563
-0.31114
-0.31348
-0.32013
-0.33044
-0.31198
-0.30772
-0.29693
-0.29439
-0.31502
-0.31437
-0.29886
-0.27632
-0.27211
-0.26251
-0.24218
-0.22155
-0.21624
-0.21888
-0.21171
-0.18890
-0.14815
-0.12000
-0.12190
-0.13658
-0.15634
-0.17603
-0.20492
-0.23491
-0.24701
-0.25868
-0.26320
-0.28240
-0.31959
-0.33167
-0.33838
-0.34813
-0.34704
-0.35118
-0.35001
-0.36778
-0.36271
-0.36861
-0.35871
-0.35056
-0.35100
-0.35523
-0.35039
-0.33280
-0.34411
-0.33833
-0.35892
-0.38892
-0.41376
-0.46941
-0.55984
-0.58264
-0.41635
-0.03083
0.51880
1.08281
1.44656
1.38555
0.81361
0.01721
-0.54396
-0.72625
-0.69571
-0.65998
-0.71343
-0.84687
-0.98223
-1.07362
-1.07856
-1.05476
-0.97810
-0.86804
-0.75443
-0.62974
-0.51374
-0.42787
-0.38230
-0.37300
-0.36118
-0.34185
-0.33313
-0.32284
-0.31162
-0.29991
-0.28460
-0.26688
-0.27087
-0.27383
-0.27964
-0.28038
-0.28272
-0.27290
-0.27304
-0.23348
-0.22320
-0.22917
-0.24522
-0.25097
-0.23691
-0.22320
-0.22134
-0.21106
-0.19914
-0.18173
-0.17072
-0.16457
-0.16603
-0.15662
-0.13527
-0.13829
-0.13154
-0.10450
-0.09803
-0.08127
-0.08034
-0.06957
-0.04978
-0.02309
-0.00959
0.00934
0.01884
0.02863
0.03940
0.05468
0.06828
0.09729
0.13569
0.13881
0.13742
0.14144
0.15283
0.16053
0.17254
0.19855
0.23178
0.24420
0.24619
0.24820
0.25769
0.25314
0.25798
0.26452
0.27017
0.27170
0.23790
0.21773
0.18412
0.14488
0.11078
0.09008
0.07040
0.04657
0.01892
-0.01585
-0.05875
-0.08720
-0.12205
-0.13851
-0.17031
-0.18512
-0.18172
-0.18746
-0.19835
-0.22576
-0.24136
-0.24652
-0.24036
-0.22980
-0.22351
-0.21874
-0.22214
-0.22714
-0.23845
-0.24012
-0.22994
-0.21886
-0.20969
-0.19914
-0.20940
-0.21364
-0.20952
-0.22253
-0.22033
-0.20869
-0.19980
-0.19744
-0.20328
-0.21672
-0.21739
-0.21969
-0.23246
-0.22821
-0.22682
-0.22830
-0.22620
-0.23817
-0.25522
-0.25905
-0.27163
-0.26694
-0.25810
-0.26502
-0.25895
-0.28103
-0.28246
-0.29379
-0.30760
-0.28684
-0.28660
-0.27986
-0.28059
-0.27210
-0.28108
-0.28377
-0.30197
-0.29636
-0.28717
-0.28073
-0.28732
-0.28951
-0.28811
-0.29587
-0.30023
-0.30413
-0.28541
-0.27081
-0.25543
-0.23267
-0.22464
-0.20328
-0.18759
-0.17507
-0.16267
-0.14507
-0.13889
-0.13362
-0.14653
-0.16185
-0.19554
-0.23699
-0.24519
-0.26836
-0.28064
-0.30592
-0.32311
-0.34330
-0.35253
-0.35998
-0.36323
-0.37043
-0.36254
-0.34792
-0.34983
-0.34731
-0.35310
-0.36327
-0.37331
-0.36068
-0.35897
-0.34908
-0.34223
-0.35310
-0.35868
-0.38784
-0.44660
-0.53693
-0.61769
-0.57340
-0.32815
0.08894
0.61073
1.09439
1.38890
1.33937
0.88582
0.22596
-0.28512
-0.50659
-0.54057
-0.55920
-0.64323
-0.80149
-0.96643
-1.08053
-1.10598
-1.07922
-1.02847
-0.94228
-0.84474
-0.74080
-0.61203
-0.51961
-0.44672
-0.39803
-0.38221
-0.37688
-0.36796
-0.38135
-0.36916
-0.35409
-0.34940
-0.31737
-0.31877
-0.32233
-0.32052
-0.32369
-0.32150
-0.32370
-0.30658
-0.29771
-0.29088
-0.28450
-0.28349
-0.29437
-0.29388
-0.28509
-0.28081
-0.26341
-0.24844
-0.25061
-0.24475
-0.24508
-0.24485
-0.23421
-0.22502
-0.20648
-0.18502
-0.17902
-0.17043
-0.15626
-0.16381
-0.15936
-0.14517
-0.12191
-0.09989
-0.08786
-0.07504
-0.06037
-0.06462
-0.05387
-0.02915
-0.01579
0.01598
0.03944
0.07054
0.07985
0.09399
0.09669
0.11021
0.12611
0.14539
0.17037
0.17542
0.17683
0.19296
0.18575
0.18887
0.18772
0.20841
0.22205
0.23600
0.22997
0.21867
0.20005
0.17054
0.14888
0.13396
0.13143
0.10772
0.07906
0.03897
0.00583
-0.02256
-0.05990
-0.08853
-0.10077
-0.12689
-0.13916
-0.16783
-0.19106
-0.22590
-0.25165
-0.25586
-0.27179
-0.27404
-0.26655
-0.27913
-0.29108
-0.30410
-0.31657
-0.31277
-0.30503
-0.30034
-0.28306
-0.28783
-0.28323
-0.28148
-0.29594
-0.28681
-0.28586
-0.27035
-0.26180
-0.26166
-0.26703
-0.26581
-0.25803
-0.26522
-0.25481
-0.24794
-0.25281
-0.23950
-0.23995
-0.24355
-0.25360
-0.26321
-0.26442
-0.26009
-0.24641
-0.25057
-0.25124
