-0.24137
-0.29865
-0.27770
-0.28998
-0.28122
-0.28967
-0.28286
-0.29782
-0.31236
-0.32738
-0.30106
-0.28407
-0.31189
-0.33450
-0.32366
-0.30999
-0.32648
-0.33672
-0.31167
-0.30220
-0.31065
-0.32386
-0.32390
-0.30542
-0.29959
-0.31492
-0.33628
-0.30358
-0.30336
-0.33106
-0.34235
-0.33743
-0.32657
-0.33857
-0.34951
-0.32579
-0.30342
-0.31403
-0.32906
-0.30815
-0.29347
-0.30701
-0.32552
-0.31765
-0.28865
-0.29557
-0.32706
-0.29806
-0.26961
-0.27447
-0.29141
-0.28768
-0.26343
-0.25735
-0.26553
-0.27931
-0.25142
-0.22947
-0.24505
-0.24185
-0.21769
-0.20268
-0.19674
-0.19906
-0.17306
-0.15659
-0.16681
-0.15514
-0.14482
-0.11265
-0.11787
-0.14104
-0.13087
-0.11001
-0.13168
-0.15020
-0.15310
-0.13564
-0.15684
-0.18980
-0.19544
-0.17424
-0.17896
-0.21822
-0.22667
-0.20966
-0.20365
-0.23536
-0.23314
-0.22585
-0.21676
-0.22534
-0.24924
-0.21955
-0.20849
-0.21153
-0.22304
-0.21700
-0.20940
-0.21279
-0.22681
-0.22507
-0.20593
-0.20364
-0.21043
-0.21585
-0.18977
-0.16565
-0.19079
-0.21727
-0.19746
-0.17277
-0.18532
-0.19493
-0.19731
-0.19880
-0.19725
-0.19663
-0.19654
-0.18310
-0.19001
-0.20455
-0.20495
-0.19259
-0.20720
-0.22733
-0.23108
-0.21644
-0.20165
-0.20717
-0.20906
-0.20694
-0.20404
-0.21862
-0.22187
-0.22006
-0.21289
-0.21682
-0.22782
-0.21996
-0.20282
-0.21324
-0.21469
-0.19446
-0.17952
-0.15622
-0.09532
0.00614
0.16779
0.37710
0.63814
0.95606
1.25986
1.43766
1.38990
1.07244
0.60156
0.10394
-0.31757
-0.42169
-0.32546
-0.25821
-0.26953
-0.29408
-0.25831
-0.27218
-0.29303
-0.31414
-0.30404
-0.30582
-0.32571
-0.33311
-0.33013
-0.31532
-0.33143
-0.35674
-0.37933
-0.33133
-0.31626
-0.31917
-0.34033
-0.32493
-0.31149
-0.32201
-0.33718
-0.32910
-0.30953
-0.32583
-0.33077
-0.30931
-0.29558
-0.30385
-0.29387
-0.26836
-0.26755
-0.27044
-0.27964
-0.26070
-0.23352
-0.23292
-0.24198
-0.24403
-0.22341
-0.21758
-0.23800
-0.23188
-0.21128
-0.19124
-0.19454
-0.19079
-0.17439
-0.15476
-0.16061
-0.16515
-0.13253
-0.11087
-0.11806
-0.11151
-0.09075
-0.07286
-0.08965
-0.12272
-0.10906
-0.10630
-0.11767
-0.14120
-0.14592
-0.14584
-0.17402
-0.20547
-0.21977
-0.20072
-0.19523
-0.24009
-0.22237
-0.22818
-0.21960
-0.23250
-0.25416
-0.25754
-0.23282
-0.23599
-0.25898
-0.24473
-0.21378
-0.21302
-0.22370
-0.22099
-0.20083
-0.21150
-0.22449
-0.22212
-0.22066
-0.19949
-0.21385
-0.22282
-0.20606
-0.21129
-0.24893
-0.25764
-0.22293
-0.22340
-0.22840
-0.23125
-0.21790
-0.20881
-0.22725
-0.23335
-0.22329
-0.18646
-0.19910
-0.21899
-0.21350
-0.18239
-0.16328
-0.19966
-0.19010
-0.17131
-0.17627
-0.17644
-0.18111
-0.17506
-0.17459
-0.19680
-0.20159
-0.20112
-0.18764
-0.19581
-0.21182
-0.19482
-0.17589
-0.19815
-0.21302
-0.20539
-0.18103
-0.19560
-0.21211
-0.19424
-0.16268
-0.13452
-0.09895
-0.00425
0.14997
0.33628
0.56782
0.85325
1.16744
1.38449
1.42449
1.19701
0.79765
0.35026
-0.08736
-0.31425
-0.29327
-0.20924
-0.19060
-0.18580
-0.19426
-0.19798
-0.22590
-0.27003
-0.24997
-0.24954
-0.26982
-0.29535
-0.29157
-0.27712
-0.26757
-0.29840
-0.30269
-0.27662
-0.26944
-0.28995
-0.31148
-0.28672
-0.26755
-0.28893
-0.29647
-0.27600
-0.25784
-0.26199
-0.27309
-0.26682
-0.23882
-0.24745
-0.25993
-0.23481
-0.20046
-0.20116
-0.22020
-0.21403
-0.21549
-0.19851
-0.18966
-0.20812
-0.17922
-0.16922
-0.17504
-0.15490
-0.15150
-0.14630
-0.15032
-0.15511
-0.14744
-0.13300
-0.15206
-0.14662
-0.11486
-0.09821
-0.10220
-0.11514
-0.10856
-0.06016
-0.05447
-0.05912
-0.04995
-0.02213
-0.01658
-0.03711
-0.05283
-0.02638
-0.03572
-0.04571
-0.06524
-0.06222
-0.06924
-0.08966
-0.11816
-0.12126
-0.12389
-0.16700
-0.19348
-0.17195
-0.16899
-0.19528
-0.21617
-0.21741
-0.17587
-0.19039
-0.20680
-0.15756
-0.10572
-0.07518
-0.06043
-0.02564
0.03098
0.08867
0.17295
0.26786
0.36842
0.48615
0.59419
0.68879
0.80615
0.93995
1.06386
1.15674
1.21618
1.21130
1.16294
1.08595
0.98902
0.86913
0.67247
0.47425
0.32387
0.22411
0.15690
0.12258
0.09992
0.10125
0.15060
0.21731
0.33285
0.36869
0.21794
-0.08366
-0.30248
-0.37103
-0.41007
-0.45236
-0.51167
-0.50594
-0.51322
-0.56762
-0.60828
-0.59353
-0.59054
-0.62404
-0.65379
-0.66135
-0.63256
-0.65040
-0.67389
-0.68909
-0.67119
-0.68059
-0.69196
-0.69679
-0.70696
-0.70554
-0.71483
-0.71769
-0.71579
-0.69360
-0.70941
-0.72699
-0.71666
-0.69415
-0.72105
-0.73770
-0.69285
-0.65928
-0.64857
-0.66481
-0.63904
-0.60982
-0.59233
-0.62261
-0.60116
-0.54586
-0.51777
-0.52094
-0.50847
-0.45934
-0.42791
-0.42533
-0.41826
-0.37913
-0.34310
-0.34300
-0.34993
-0.32203
-0.30405
-0.28822
-0.31131
-0.30340
-0.28067
-0.28213
-0.28689
-0.28390
-0.24319
-0.24534
-0.27244
-0.28524
-0.26981
-0.25780
-0.25925
-0.24834
-0.23133
-0.21980
-0.22809
-0.23642
-0.20820
-0.20533
-0.22388
-0.24689
-0.23022
-0.22437
-0.23255
-0.26630
-0.24086
-0.22151
-0.22125
-0.23287
-0.22817
-0.20105
-0.20234
-0.23050
-0.24149
-0.21714
-0.19278
-0.20719
-0.20948
-0.21899
-0.20843
-0.20692
-0.21693
-0.20889
-0.21327
-0.21179
-0.21350
-0.20359
-0.18373
-0.19567
-0.22916
-0.21475
-0.18309
-0.18214
-0.20196
-0.20787
-0.20146
-0.19794
-0.21194
-0.23138
-0.21776
-0.20990
-0.21231
-0.22229
-0.20665
-0.19431
-0.21727
-0.22601
-0.20068
-0.19061
-0.20493
-0.22260
-0.20666
-0.18597
-0.19808
-0.20510
-0.20520
-0.19567
-0.20785
-0.21053
-0.20880
-0.18606
-0.17885
-0.21084
-0.22061
-0.19550
-0.18551
-0.20170
-0.21874
-0.19695
-0.20522
-0.23391
-0.23943
-0.21647
-0.20203
-0.23163
-0.23859
-0.22818
-0.19644
-0.20761
-0.22671
-0.21734
-0.19042
-0.20394
-0.22956
-0.20611
-0.18424
-0.18217
-0.20063
-0.20306
-0.17225
-0.17772
-0.19938
-0.20757
-0.17368
-0.17724
-0.18754
-0.20371
-0.20469
-0.17936
-0.19898
-0.21967
-0.18690
-0.16064
-0.16804
-0.17077
-0.17018
-0.14050
-0.14002
-0.15549
-0.15585
-0.12384
-0.12655
-0.13095
-0.13488
-0.12138
-0.09628
-0.08244
-0.02471
0.08023
0.20814
0.36675
0.56922
0.81204
1.07865
1.28388
1.39610
1.31785
1.03652
0.62289
0.19274
-0.14464
-0.28536
-0.25728
-0.21835
-0.19382
-0.16342
-0.18882
-0.21209
-0.21054
-0.20865
-0.22401
-0.24822
-0.26977
-0.26073
-0.24407
-0.26917
-0.28000
-0.27179
-0.26552
-0.28900
-0.30430
-0.27782
-0.25746
-0.27455
-0.29341
-0.28686
-0.26974
-0.26633
-0.27999
-0.27638
-0.25767
-0.25576
-0.28081
-0.26724
-0.23924
-0.23315
-0.24287
-0.24644
-0.21068
-0.20619
-0.20103
-0.21083
-0.20286
-0.18652
-0.19476
-0.21348
-0.18777
-0.16493
-0.17869
-0.17642
-0.15643
-0.15086
-0.16520
-0.16364
-0.13566
-0.13373
-0.15427
-0.16312
-0.15083
-0.12774
-0.13334
-0.12869
-0.09617
-0.06903
-0.05061
-0.05316
-0.01004
0.01155
0.02377
0.01810
0.02791
0.05768
0.06727
0.03791
0.02741
0.05203
0.02490
-0.00314
-0.00427
0.00209
0.00229
-0.03047
-0.06247
-0.05716
-0.07410
-0.09688
-0.11216
-0.10338
-0.09819
-0.11663
-0.12950
-0.12963
-0.11455
-0.13815
-0.14636
-0.15140
-0.13388
-0.13755
-0.14734
-0.14012
-0.11079
-0.11351
-0.12392
-0.13121
-0.10089
-0.08741
-0.11450
-0.13257
-0.09139
-0.09093
-0.11180
-0.11192
-0.09860
-0.10383
-0.11009
-0.12078
-0.11689
-0.10399
-0.12150
-0.12378
-0.12934
-0.11055
-0.12720
-0.14569
-0.13393
-0.11310
-0.12189
-0.15898
-0.18426
-0.16213
-0.14789
-0.14549
-0.14765
-0.14560
-0.13704
-0.16382
-0.18345
-0.15124
-0.13369
-0.16352
-0.17046
-0.15798
-0.14344
-0.15412
-0.16438
-0.15749
-0.12669
-0.14141
-0.15704
-0.15187
-0.15714
-0.15631
-0.15175
-0.15347
-0.14138
-0.14287
-0.16967
-0.19005
-0.17692
-0.15662
-0.17315
-0.20544
-0.17987
-0.15911
-0.16324
-0.18574
-0.17692
-0.15960
-0.15900
-0.20573
-0.17884
-0.14974
-0.16601
-0.17092
-0.16318
-0.12849
-0.12888
-0.15805
-0.16860
-0.14095
-0.12916
-0.14854
-0.17158
-0.16610
-0.14791
-0.15007
-0.16113
-0.12710
-0.11723
-0.13461
-0.15641
-0.14229
-0.12796
-0.14701
-0.15849
-0.15152
-0.13188
-0.13446
-0.12934
-0.14123
-0.12444
-0.11975
-0.14133
-0.13140
-0.06864
-0.05916
-0.06527
-0.01848
0.08823
0.22325
0.36849
0.55926
0.78398
1.03590
1.25689
1.40391
1.40650
1.22849
0.85793
0.48314
0.12710
-0.16175
-0.27515
-0.25609
-0.19321
-0.15510
-0.15082
-0.15981
-0.16704
-0.17391
-0.18614
-0.21984
-0.22644
-0.20933
-0.19631
-0.21270
-0.20449
-0.20019
-0.18249
-0.19998
-0.21465
-0.21514
-0.20633
-0.22471
-0.24512
-0.22800
-0.19593
-0.18804
-0.21233
-0.22641
-0.20991
-0.21165
-0.22594
-0.23013
-0.20560
-0.19500
-0.20829
-0.20488
-0.18516
-0.19572
-0.20918
-0.22444
-0.20666
-0.19791
-0.21550
-0.21745
-0.17772
-0.14826
-0.14950
-0.16954
-0.14843
-0.12325
-0.11782
-0.13919
-0.13247
-0.12099
-0.10203
-0.10813
-0.11197
-0.09395
-0.08383
-0.08574
-0.07904
-0.06478
-0.06097
-0.07727
-0.07294
-0.06136
-0.04275
-0.04307
-0.05698
-0.04480
-0.03435
-0.04669
-0.04217
-0.02605
0.00004
-0.01474
-0.05015
-0.03991
-0.02694
-0.03126
-0.05088
-0.06938
-0.05796
-0.07282
-0.10548
-0.10577
-0.08765
-0.08461
-0.10927
-0.13905
-0.12547
-0.11017
-0.12418
-0.14733
-0.14440
-0.12270
-0.12915
-0.15581
-0.15393
-0.12607
-0.13040
-0.12703
-0.09765
-0.06293
-0.07766
-0.08215
-0.05601
-0.00389
0.03517
0.05068
0.03642
0.09072
0.16267
0.22436
0.29878
0.41588
0.52222
0.61027
0.68658
0.79764
0.92473
1.01047
1.07288
1.12699
1.11591
1.09585
1.06935
1.00618
0.93190
0.79807
0.61671
0.44337
0.31316
0.23218
0.15883
0.13038
0.13574
0.14725
0.15043
0.20351
0.30671
0.35599
0.22088
-0.00543
-0.21750
-0.31857
-0.37667
-0.41494
-0.45970
-0.46902
-0.49113
-0.53681
-0.56751
-0.55859
-0.57600
-0.59063
-0.61171
-0.60279
-0.60327
-0.61808
-0.61970
-0.64075
-0.63514
-0.64978
-0.67226
-0.64099
-0.62906
-0.64844
-0.67026
-0.68063
-0.66415
-0.68808
-0.70586
-0.72359
-0.70751
-0.71836
-0.74972
-0.74647
-0.73245
-0.72438
-0.73083
-0.73314
-0.70700
-0.72602
-0.73126
-0.72966
-0.70417
-0.66783
-0.67360
-0.65658
-0.62842
-0.61130
-0.61011
-0.58964
-0.54749
-0.51880
-0.50083
-0.48218
-0.46718
-0.40644
-0.40673
-0.40798
-0.36191
-0.33406
-0.30822
-0.32673
-0.33218
-0.29195
-0.25363
-0.27462
-0.28933
-0.25000
-0.24436
-0.25296
-0.25357
-0.25699
-0.24152
-0.24574
-0.25494
-0.24352
-0.22311
-0.24869
-0.25224
-0.24518
-0.22486
-0.22453
-0.25327
-0.22751
-0.20134
-0.20632
-0.20529
-0.20898
-0.20074
-0.19722
-0.22300
-0.23707
-0.22122
-0.20545
-0.20362
-0.23510
-0.22405
-0.19889
-0.21077
-0.22499
-0.21051
-0.18228
-0.21567
-0.24033
-0.21677
-0.20145
-0.22840
-0.23823
-0.22830
-0.21882
-0.22815
-0.23913
-0.23951
-0.23390
-0.24656
-0.25816
-0.25152
-0.21660
-0.20612
-0.22884
-0.23069
-0.21104
-0.20698
-0.22558
-0.23200
-0.23614
-0.21787
-0.22317
-0.22768
-0.21919
-0.19350
-0.20343
-0.24418
-0.25701
-0.22586
-0.21338
-0.26598
-0.26490
-0.24333
-0.23936
-0.23665
-0.23802
-0.22577
-0.21289
-0.22700
-0.23304
-0.22297
-0.23628
-0.24847
-0.24118
-0.22457
-0.21266
-0.22833
-0.24582
-0.23911
-0.21913
-0.23928
-0.24484
-0.24065
-0.20181
-0.19221
-0.21930
-0.23091
-0.20773
-0.19496
-0.23194
-0.23278
-0.22612
-0.24666
-0.26486
-0.25712
-0.22737
-0.21886
-0.23548
-0.24582
-0.23774
-0.21284
-0.22330
-0.24181
-0.23870
-0.22587
-0.21284
-0.23213
-0.23269
-0.20877
-0.22326
-0.24510
-0.25535
-0.21807
-0.22894
-0.24751
-0.24950
-0.21976
-0.20451
-0.22920
-0.23327
-0.20991
-0.24155
-0.27695
-0.26571
-0.21305
-0.21209
-0.21191
-0.21032
-0.20600
-0.18443
-0.19059
-0.21802
-0.22340
-0.19477
-0.20288
-0.21410
-0.22116
-0.19488
-0.19718
-0.21525
-0.21364
-0.20420
-0.20709
-0.19454
-0.21021
-0.19972
-0.18355
-0.20107
-0.20264
-0.18901
-0.16230
-0.16703
-0.18989
-0.18213
-0.15670
-0.14357
-0.09994
-0.01232
0.10621
0.25313
0.41297
0.66801
0.93592
1.16968
1.31281
1.30076
1.08990
0.73666
0.34343
-0.03501
-0.26700
-0.27904
-0.23809
-0.21285
-0.19844
-0.20603
-0.21378
-0.23109
-0.21837
-0.22796
-0.26444
-0.28254
-0.26812
-0.25940
-0.27606
-0.29511
-0.28883
-0.27027
-0.26405
-0.29189
-0.29441
-0.27706
-0.26586
-0.27836
-0.32896
-0.30596
-0.29300
-0.30806
-0.33557
-0.30851
-0.27992
-0.30150
-0.30555
-0.29658
-0.26018
-0.27012
-0.28121
-0.26431
-0.24836
-0.24558
-0.27022
-0.27092
-0.25338
-0.23237
-0.23747
-0.24029
-0.22388
-0.19797
-0.20834
-0.20443
-0.16552
-0.13997
-0.15006
-0.16226
-0.15376
-0.12629
-0.14087
-0.13452
-0.11560
-0.09260
-0.10050
-0.10518
-0.08047
-0.07478
-0.06678
-0.07047
-0.06372
-0.02323
-0.01874
-0.02440
-0.02961
-0.00840
0.02136
-0.00272
-0.01826
-0.02631
-0.03299
-0.04902
-0.07369
-0.07737
-0.06187
-0.08946
-0.12141
-0.12840
-0.11773
-0.14064
-0.17270
-0.17020
-0.14934
-0.15603
-0.16432
-0.17694
-0.16102
-0.16932
-0.18444
-0.19474
-0.18044
-0.16268
-0.19215
-0.19528
-0.16940
-0.16135
-0.18504
-0.17311
-0.16178
-0.13538
-0.14779
-0.15723
-0.13889
-0.14283
-0.15286
-0.16737
-0.17227
-0.14184
-0.12478
-0.14962
-0.13549
-0.11548
-0.10455
-0.13241
-0.14557
-0.13624
-0.15736
-0.17729
-0.18251
-0.16104
-0.15292
-0.15924
-0.16162
-0.16295
-0.15319
-0.16339
-0.18045
-0.16611
-0.15037
-0.16855
-0.19357
-0.20303
-0.18289
-0.17122
-0.19612
-0.18538
-0.16912
-0.17249
-0.18908
-0.18577
-0.15816
-0.15180
-0.16443
-0.18744
-0.16838
-0.15551
-0.16142
-0.17466
-0.16623
-0.15919
-0.18132
-0.19678
-0.18112
-0.15096
-0.14454
-0.18478
-0.19931
-0.16509
-0.14825
-0.16756
-0.15863
-0.07086
0.02304
0.13447
0.27549
0.49351
0.76938
1.01574
1.24007
1.33915
1.16933
0.75005
0.26878
-0.13508
-0.35643
-0.34828
-0.28718
-0.22694
-0.17153
-0.18864
-0.22296
-0.21724
-0.21480
-0.23742
-0.25839
-0.26689
-0.25264
-0.24018
-0.25451
-0.26864
-0.26368
-0.27459
-0.29163
-0.28118
-0.26885
-0.25453
-0.27674
-0.29688
-0.30316
-0.27853
-0.28969
-0.28542
-0.26467
-0.25079
-0.25858
-0.25153
-0.24671
-0.22124
-0.22598
-0.24303
-0.22472
-0.21174
-0.20981
-0.22703
-0.23608
-0.21054
-0.17599
-0.16945
-0.19784
-0.20283
-0.17035
-0.15977
-0.16233
-0.14327
-0.12387
-0.12290
-0.11200
-0.10804
-0.07458
-0.08624
-0.12381
-0.09164
-0.06017
-0.06614
-0.07823
-0.08704
-0.04781
-0.04049
-0.06826
-0.06061
-0.06032
-0.04461
-0.06347
-0.09540
-0.09397
-0.10557
-0.12858
-0.15628
-0.14590
-0.14065
-0.15064
-0.18104
-0.18900
-0.18278
-0.19848
-0.21424
-0.20089
-0.19851
-0.21018
-0.23227
-0.21718
-0.20283
-0.18771
-0.19964
-0.22247
-0.21510
-0.19039
-0.18858
-0.18050
-0.16547
-0.16631
-0.18359
-0.18342
-0.17064
-0.15604
-0.17890
-0.20531
-0.19701
-0.16666
-0.17808
-0.18706
-0.19453
-0.18924
-0.19805
-0.19953
-0.19800
-0.16323
-0.17221
-0.20035
-0.20426
-0.18362
-0.17421
-0.20992
-0.20319
-0.17358
-0.16816
-0.18376
-0.18479
-0.18766
-0.16914
-0.19145
-0.22165
-0.19688
-0.18163
-0.17981
-0.19244
-0.19609
-0.18338
-0.19558
-0.22697
-0.21994
-0.17990
-0.17688
-0.19511
-0.21080
-0.18656
-0.19976
-0.22177
-0.23492
-0.21477
-0.19615
-0.23412
-0.21589
-0.20753
-0.19550
-0.19071
-0.21414
-0.21436
-0.20356
-0.19182
-0.20103
-0.21296
-0.19099
-0.19148
-0.19505
-0.20578
-0.20257
-0.19351
-0.19714
-0.19824
-0.19522
-0.19795
-0.21573
-0.19041
-0.17056
-0.16775
-0.19283
-0.20646
-0.18143
-0.14871
-0.16572
-0.18927
-0.17338
-0.16062
-0.17566
-0.18316
-0.16222
-0.13448
-0.15039
-0.15942
-0.16107
-0.16299
-0.15076
-0.13846
-0.06621
0.05971
0.18343
0.33001
0.53934
0.81451
1.11254
1.32660
1.39729
1.24945
0.89189
0.45245
-0.00182
-0.31892
-0.34712
-0.26990
-0.25206
-0.21787
-0.18963
-0.21748
-0.23850
-0.24575
-0.22907
-0.25038
-0.27920
-0.28172
-0.25215
-0.26099
-0.27659
-0.28849
-0.26255
-0.25170
-0.28011
-0.28237
-0.26210
-0.24623
-0.25493
-0.26776
-0.26253
-0.25743
-0.26908
-0.28329
-0.29313
-0.26056
-0.23630
-0.25430
-0.26248
-0.23578
-0.23366
-0.23966
-0.23029
-0.23391
-0.20441
-0.21746
-0.23051
-0.21092
-0.19583
-0.21321
-0.21815
-0.15925
-0.12042
-0.13359
-0.14202
-0.12406
-0.08448
-0.09715
-0.09990
-0.09183
-0.04798
-0.05975
-0.08081
-0.05497
-0.04857
-0.02916
-0.04691
-0.04461
-0.02970
-0.02164
-0.04751
-0.04437
-0.03994
-0.04485
-0.05223
-0.07401
-0.08076
-0.08967
-0.11437
-0.13704
-0.11785
-0.09269
-0.14275
-0.18290
-0.17762
-0.16838
-0.17258
-0.18456
-0.19051
-0.18683
-0.18432
-0.19367
-0.18756
-0.15728
-0.13718
-0.14983
-0.12782
-0.05474
0.00091
0.00636
0.03431
0.11748
0.22358
0.31721
0.39925
0.51642
0.64299
0.71992
0.80272
0.94575
1.09817
1.16469
1.15900
1.12494
1.11792
1.06307
0.95357
0.81114
0.64822
0.47321
0.27957
0.11646
0.01653
-0.01581
-0.04826
-0.08243
-0.06150
0.03802
0.13956
0.21721
0.19518
0.03617
-0.19781
-0.34593
-0.40387
-0.41956
-0.43634
-0.49097
-0.51693
-0.50314
-0.51669
-0.56928
-0.57823
-0.55783
-0.57437
-0.60727
-0.61352
-0.60741
-0.61236
-0.63353
-0.65487
-0.64450
-0.64984
-0.67081
-0.69166
-0.69091
-0.66451
-0.67750
-0.70421
-0.69393
-0.69098
-0.70233
-0.72563
-0.71809
-0.69492
-0.68664
-0.70617
-0.69765
-0.67429
-0.66483
-0.66792
-0.64388
-0.60761
-0.60290
-0.60650
-0.58933
-0.55854
-0.52358
-0.51649
-0.51656
-0.48548
-0.44085
-0.42164
-0.40103
-0.37166
-0.35228
-0.32709
-0.33342
-0.30991
-0.28091
-0.30000
-0.31705
-0.30808
-0.30092
-0.28774
-0.30622
-0.31392
-0.30375
-0.29444
-0.30289
-0.33845
-0.31735
-0.32012
-0.32991
-0.31675
-0.29146
-0.27441
-0.28074
-0.29474
-0.28264
-0.25559
-0.25022
-0.26796
-0.27945
-0.26653
-0.25481
-0.25480
-0.26307
-0.24061
-0.23315
-0.27226
-0.28880
-0.25734
-0.22581
-0.24736
-0.26395
-0.25912
-0.25626
-0.26338
-0.26447
-0.25845
-0.23869
-0.24332
-0.26332
-0.26659
-0.24491
-0.24711
-0.26565
-0.24947
-0.24249
-0.24369
-0.25957
-0.27104
-0.25693
-0.25493
-0.26584
-0.27068
-0.24956
-0.24758
-0.25508
-0.25765
-0.25072
-0.24045
-0.26618
-0.27692
-0.25908
-0.23856
-0.25534
-0.26912
-0.25117
-0.23929
-0.24201
-0.26238
-0.26537
-0.23296
-0.24820
-0.27402
-0.26729
-0.25804
-0.23981
-0.25804
-0.27170
-0.25610
-0.24549
-0.25240
-0.25729
-0.25736
-0.25065
-0.27943
-0.29281
-0.25391
-0.24119
-0.23571
-0.24725
-0.25289
-0.24889
-0.24465
-0.25345
-0.25099
-0.23342
-0.23830
-0.25100
-0.26608
-0.25770
-0.24471
-0.26768
-0.26945
-0.23987
-0.23306
-0.24597
-0.26569
-0.25095
-0.22178
-0.22903
-0.24700
-0.24090
-0.21825
-0.22968
-0.25091
-0.24330
-0.22388
-0.21112
-0.23785
-0.20580
-0.17747
-0.19001
-0.19944
-0.16415
-0.09225
0.01278
0.10939
0.30814
0.56345
0.85848
1.08921
1.26465
1.31896
1.10421
0.66275
0.17310
-0.21542
-0.38239
-0.35667
-0.29841
-0.25283
-0.22997
-0.27379
-0.30456
-0.29868
-0.28850
-0.29168
-0.30970
-0.31130
-0.30345
-0.30638
-0.32235
-0.31586
-0.31091
-0.31539
-0.32244
-0.30647
-0.29816
-0.30025
-0.31702
-0.31760
-0.32250
-0.30316
-0.31528
-0.32673
-0.31918
-0.32037
-0.31707
-0.33748
-0.32331
-0.30327
-0.30195
-0.32442
-0.30681
-0.27410
-0.27037
-0.28034
-0.27900
-0.25215
-0.23451
-0.25183
-0.25798
-0.25125
-0.22115
-0.20892
-0.20093
-0.15752
-0.14731
-0.14518
-0.16650
-0.16996
-0.15088
-0.16341
-0.15424
-0.15646
-0.13231
-0.11287
-0.10951
-0.10195
-0.08289
-0.08307
-0.08997
-0.10781
-0.07432
-0.05329
-0.07346
-0.08539
-0.07893
-0.04950
-0.06905
-0.09647
-0.10772
-0.09756
-0.11537
-0.14477
-0.14533
-0.15057
-0.18120
-0.21312
-0.21502
-0.19146
-0.20993
-0.24790
-0.24674
-0.23939
-0.24509
-0.25399
-0.25539
-0.23432
-0.23090
-0.24726
-0.25368
-0.23422
-0.22327
-0.23357
-0.25702
-0.23861
-0.20626
-0.21523
-0.23278
-0.22139
-0.20938
-0.20616
-0.20955
-0.20160
-0.17310
-0.17104
-0.20003
-0.21433
-0.19134
-0.20108
-0.21467
-0.20329
-0.17532
-0.15455
-0.19667
-0.20029
-0.19379
-0.19986
-0.20456
-0.21277
-0.20376
-0.20140
-0.22210
-0.22346
-0.20668
-0.19499
-0.22373
-0.24606
-0.23258
-0.20183
-0.18952
-0.21310
-0.22880
-0.22370
-0.19248
-0.21185
-0.20963
-0.20456
-0.20416
-0.21940
-0.23221
-0.20996
-0.18749
-0.19724
-0.19212
-0.19033
-0.18633
-0.17135
-0.12860
-0.02302
0.09484
0.25845
0.47149
0.76170
1.07332
1.30185
1.39553
1.28821
1.01987
0.61299
0.16757
-0.24179
-0.45728
-0.44833
-0.37260
-0.32733
-0.27856
-0.25870
-0.27817
-0.29007
-0.28493
-0.27832
-0.29274
-0.31046
-0.30888
-0.29833
-0.30613
-0.34297
-0.31788
-0.30508
-0.31578
-0.33336
-0.33356
-0.31454
-0.30964
-0.33442
-0.33315
-0.31119
-0.31749
-0.31757
-0.33528
-0.32828
-0.31206
-0.33347
-0.32327
-0.29132
-0.29086
-0.32096
-0.32044
-0.32207
-0.29169
-0.30264
-0.32786
-0.31992
-0.30187
-0.30312
-0.31037
-0.28263
-0.26483
-0.23842
-0.24690
-0.23539
-0.22084
-0.22606
-0.22567
-0.21403
-0.18693
-0.17643
-0.19550
-0.18448
-0.16067
-0.13917
-0.14415
-0.15129
-0.14546
-0.12210
-0.13014
-0.14782
-0.11319
-0.10646
-0.12209
-0.14460
-0.15092
-0.16297
-0.16350
-0.19429
-0.20596
-0.19903
-0.21798
-0.26239
-0.26668
-0.23819
-0.26042
-0.27447
-0.31098
-0.29087
-0.26069
-0.27469
-0.30101
-0.30904
-0.29213
-0.29883
-0.30264
-0.29746
-0.26945
-0.28416
-0.28983
-0.28154
-0.27038
-0.26441
-0.29231
-0.28081
-0.25638
-0.25299
-0.26980
-0.24294
-0.23944
-0.23317
-0.25017
-0.26624
-0.25150
-0.23391
-0.25040
-0.26652
-0.25375
-0.23294
-0.24852
-0.26134
-0.24655
-0.23859
-0.25175
-0.27314
-0.26320
-0.24436
-0.24523
-0.26293
-0.26317
-0.25511
-0.24434
-0.28262
-0.28851
-0.27966
-0.27453
-0.27880
-0.28784
-0.25780
-0.25569
-0.26905
-0.29085
-0.28850
-0.27348
-0.29393
-0.30479
-0.28887
-0.25597
-0.28083
-0.31093
-0.30253
-0.25995
-0.26390
-0.28459
-0.29408
-0.28553
-0.28325
-0.29749
-0.29111
-0.26734
-0.25693
-0.28192
-0.29508
-0.28272
-0.25525
-0.26592
-0.28163
-0.28080
-0.25989
-0.27247
-0.29581
-0.27618
-0.25572
-0.26006
-0.28368
-0.28603
-0.26264
-0.26669
-0.30103
-0.28563
-0.27127
-0.27050
-0.30560
-0.29963
-0.26989
-0.26142
-0.28520
-0.28741
-0.28799
-0.28024
-0.28971
-0.31176
-0.28788
-0.26629
-0.27114
-0.27280
-0.26922
-0.27050
-0.26644
-0.26275
-0.26243
-0.25653
-0.25378
-0.26957
-0.26551
-0.25774
-0.25858
-0.27091
-0.26496
-0.25109
-0.24776
-0.25236
-0.26728
-0.25784
-0.24724
-0.25547
-0.25887
-0.25334
-0.24790
-0.25198
-0.25380
-0.23840
-0.24878
-0.24988
-0.26175
-0.24922
-0.22329
-0.22209
-0.24470
-0.24694
-0.22888
-0.23635
-0.24982
-0.23674
-0.21263
-0.20389
-0.22953
-0.23387
-0.22728
-0.22550
-0.22800
-0.23055
-0.23265
-0.22031
-0.22269
-0.23595
-0.19638
-0.18302
-0.21770
-0.23527
-0.21843
-0.19937
-0.18879
-0.18872
-0.19905
-0.19217
-0.19615
-0.20792
-0.21021
-0.19205
-0.18580
-0.19124
-0.19924
-0.19464
-0.18590
-0.19836
-0.20758
-0.19768
-0.17605
-0.17804
-0.19179
-0.17974
-0.17131
-0.20507
-0.20967
-0.19770
-0.15665
-0.16025
-0.17882
-0.18498
-0.18075
-0.18292
-0.19307
-0.18932
-0.17624
-0.17295
-0.17683
-0.18536
-0.16628
-0.16056
-0.17642
-0.19577
-0.17261
-0.14621
-0.14599
-0.15764
-0.15206
-0.14031
-0.14517
-0.16307
-0.15407
-0.13820
-0.13902
-0.15571
-0.15091
-0.11186
-0.11607
-0.13253
-0.11253
-0.10866
-0.10096
-0.08235
-0.00918
0.13134
0.29837
0.47453
0.67338
0.92554
1.14380
1.32761
1.36724
1.19266
0.82346
0.39416
0.00278
-0.23782
-0.26131
-0.20027
-0.16435
-0.16852
-0.18690
-0.17007
-0.19200
-0.20496
-0.19574
-0.20625
-0.23267
-0.24064
-0.21560
-0.21161
-0.24469
-0.24810
-0.22791
-0.20400
-0.23544
-0.25525
-0.23699
-0.22383
-0.24224
-0.25526
-0.25336
-0.23240
-0.23247
-0.25966
-0.25712
-0.24323
-0.24944
-0.26453
-0.24947
-0.22717
-0.22514
-0.24979
-0.23123
-0.19404
-0.17530
-0.19779
-0.19805
-0.17682
-0.16070
-0.15334
-0.14451
-0.13940
-0.12335
-0.12330
-0.12091
-0.10583
-0.07766
-0.07225
-0.07713
-0.04714
-0.02506
-0.01234
-0.02623
-0.02853
0.00975
0.00206
-0.00735
-0.00369
0.01839
0.02827
0.01553
0.00247
0.00786
0.03839
0.02211
0.00085
0.00759
0.02215
0.00545
-0.02299
-0.01940
-0.01489
-0.04433
-0.07053
-0.06365
-0.06617
-0.08622
-0.10932
-0.12568
-0.11299
-0.12310
-0.15197
-0.15373
-0.13340
-0.13861
-0.15999
-0.17992
-0.16506
-0.15384
-0.16791
-0.18215
-0.15777
-0.14706
-0.16004
-0.19097
-0.19127
-0.15511
-0.17750
-0.21093
-0.19878
-0.18403
-0.18127
-0.18495
-0.18584
-0.16988
-0.16085
-0.16192
-0.16653
-0.15054
-0.13309
-0.14796
-0.16559
-0.15656
-0.13664
-0.14166
-0.14913
-0.12632
-0.11379
-0.13646
-0.16020
-0.14783
-0.14105
-0.14418
-0.15837
-0.15222
-0.15002
-0.15569
-0.15402
-0.15211
-0.15028
-0.14974
-0.16398
-0.17437
-0.15344
-0.14721
-0.15513
-0.16948
-0.15753
-0.14913
-0.18888
-0.19689
-0.18606
-0.17762
-0.18038
-0.20988
-0.20246
-0.19478
-0.21174
-0.22725
-0.20907
-0.19389
-0.19964
-0.22773
-0.23594
-0.20688
-0.20203
-0.20445
-0.21054
-0.20521
-0.19556
-0.18644
-0.20382
-0.19542
-0.17631
-0.18162
-0.17752
-0.14511
-0.13782
-0.14558
-0.14649
-0.09392
-0.02741
0.05472
0.15048
0.34213
0.58549
0.82196
1.04580
1.26292
1.38651
1.28272
0.97360
0.55574
0.11963
-0.25752
-0.45395
-0.41657
-0.30690
-0.26752
-0.26049
-0.28319
-0.27789
-0.25667
-0.27401
-0.28987
-0.27915
-0.27978
-0.29050
-0.30400
-0.29737
-0.26774
-0.26417
-0.28028
-0.28425
-0.27747
-0.30156
-0.31690
-0.31318
-0.28208
-0.26841
-0.28280
-0.28557
-0.25917
-0.24809
-0.27860
-0.28920
-0.26893
-0.24903
-0.27611
-0.29762
-0.28122
-0.26224
-0.27731
-0.30367
-0.28754
-0.26560
-0.25355
-0.26566
-0.25993
-0.23477
-0.22639
-0.23720
-0.21869
-0.18560
-0.18729
-0.20324
-0.17891
-0.14627
-0.12737
-0.13424
-0.14386
-0.11815
-0.09540
-0.07574
-0.07491
-0.07474
-0.04300
-0.02452
-0.03606
-0.04442
-0.03587
-0.03916
-0.07502
-0.07070
-0.05625
-0.06998
-0.10425
-0.11496
-0.11309
-0.12216
-0.14976
-0.16220
-0.15745
-0.16780
-0.20417
-0.24210
-0.23959
-0.22135
-0.25379
-0.28381
-0.28243
-0.26980
-0.26914
-0.30786
-0.31073
-0.28834
-0.29177
-0.31390
-0.30395
-0.28540
-0.30181
-0.29414
-0.29530
-0.28521
-0.27827
-0.29048
-0.28793
-0.26391
-0.26864
-0.28440
-0.29017
-0.26372
-0.24392
-0.25494
-0.27282
-0.25365
-0.23139
-0.25297
-0.26896
-0.26419
-0.24354
-0.24227
-0.24849
-0.23931
-0.22854
-0.24309
-0.26685
-0.26162
-0.23992
-0.25529
-0.27867
-0.27431
-0.24825
-0.24350
-0.25527
-0.27513
-0.26549
-0.24285
-0.25860
-0.27370
-0.27439
-0.25522
-0.26046
-0.27595
-0.28929
-0.27382
-0.27758
-0.29369
-0.29595
-0.28592
-0.27766
-0.29774
-0.28210
-0.26679
-0.27832
-0.28941
-0.27756
-0.26107
-0.25985
-0.27403
-0.29535
-0.28009
-0.28220
-0.30251
-0.29639
-0.29617
-0.27713
-0.28406
-0.28718
-0.29128
-0.26917
-0.27344
-0.27500
-0.27206
-0.26442
-0.25398
-0.27868
-0.28027
-0.26683
-0.26421
-0.27608
-0.28047
-0.26013
-0.27049
-0.28468
-0.29510
-0.28147
-0.24911
-0.26813
-0.28311
-0.27807
-0.27070
-0.27365
-0.26642
-0.25213
-0.24269
-0.25074
-0.27307
-0.28285
-0.25859
-0.24534
-0.26134
-0.25994
-0.24615
-0.23216
-0.25969
-0.26796
-0.24455
-0.22426
-0.24119
-0.24039
-0.21759
-0.19590
-0.20506
-0.22943
-0.22355
-0.18692
-0.18839
-0.21046
-0.19297
-0.11154
-0.01628
0.08456
0.26265
0.47756
0.74705
0.97184
1.21421
1.40397
1.37389
1.09121
0.67152
0.28809
-0.08119
-0.33137
-0.37579
-0.28006
-0.21346
-0.24401
-0.27232
-0.27641
-0.26444
-0.28767
-0.30588
-0.30432
-0.30531
-0.30711
-0.32627
-0.33352
-0.31970
-0.32141
-0.33144
-0.34333
-0.33335
-0.31054
-0.32865
-0.34618
-0.33822
-0.31564
-0.31946
-0.34615
-0.32170
-0.31289
-0.34306
-0.36826
-0.33193
-0.29992
-0.32824
-0.34565
-0.34098
-0.31046
-0.30816
-0.32077
-0.31601
-0.29399
-0.27934
-0.28142
-0.28267
-0.24350
-0.22602
-0.21164
-0.21109
-0.18269
-0.16065
-0.17969
-0.17933
-0.15195
-0.11184
-0.11815
-0.13804
-0.11919
-0.09767
-0.10950
-0.11917
-0.11751
-0.08300
-0.09576
-0.10326
-0.11231
-0.09433
-0.09002
-0.10776
-0.10826
-0.10098
-0.11750
-0.13855
-0.16367
-0.14509
-0.13501
-0.16083
-0.19491
-0.17980
-0.17512
-0.20599
-0.23498
-0.24115
-0.22589
-0.24764
-0.27492
-0.27041
-0.26043
-0.28020
-0.29443
-0.31366
-0.30420
-0.30893
-0.33398
-0.34929
-0.33746
-0.31148
-0.31683
-0.35666
-0.34996
-0.31908
-0.32834
-0.36503
-0.32660
-0.30334
-0.32250
-0.33425
-0.32107
-0.30828
-0.32030
-0.32257
-0.31030
-0.28161
-0.26713
-0.27448
-0.26397
-0.25274
-0.24737
-0.27863
-0.26834
-0.24186
-0.27054
-0.30267
-0.28460
-0.25682
-0.27328
-0.30855
-0.29002
-0.27548
-0.26266
-0.27796
-0.29673
-0.28780
-0.30046
-0.31745
-0.31565
-0.30503
-0.27992
-0.28010
-0.31862
-0.32804
-0.30312
-0.31939
-0.33835
-0.32721
-0.28501
-0.28306
-0.28865
-0.29936
-0.27818
-0.28028
-0.29658
-0.29990
-0.29604
-0.28742
-0.30983
-0.31516
-0.30498
-0.29697
-0.31467
-0.32905
-0.31273
-0.29324
-0.29250
-0.33296
-0.33584
-0.31981
-0.30682
-0.31705
-0.34170
-0.33039
-0.31116
-0.32051
-0.31958
-0.30212
-0.28401
-0.29905
-0.32586
-0.31395
-0.29741
-0.29461
-0.31294
-0.29649
-0.27830
-0.30315
-0.29847
-0.29783
-0.26314
-0.27105
-0.30289
-0.30144
-0.28379
-0.29471
-0.31423
-0.30657
-0.28411
-0.27810
-0.30693
-0.31981
-0.31683
-0.29899
-0.32768
-0.34194
-0.29763
-0.28374
-0.30387
-0.31940
-0.30229
-0.27569
-0.29215
-0.33101
-0.33108
-0.28238
-0.29661
-0.31503
-0.30876
-0.28507
-0.29188
-0.30302
-0.29228
-0.27576
-0.26428
-0.28218
-0.27865
-0.24484
-0.23411
-0.25930
-0.28623
-0.27159
-0.24614
-0.27566
-0.26186
-0.24023
-0.22858
-0.22663
-0.24776
-0.23919
-0.20557
-0.18152
-0.09540
0.03900
0.25836
0.51444
0.79902
1.07313
1.30746
1.35824
1.12411
0.68652
0.25546
-0.17090
-0.45418
-0.44546
-0.34521
-0.27403
-0.29610
-0.32362
-0.30858
-0.27637
-0.28672
-0.32822
-0.31479
-0.29093
-0.30571
-0.34583
-0.34172
-0.32563
-0.34250
-0.37814
-0.36628
-0.33905
-0.36315
-0.39213
-0.39228
-0.37091
-0.35311
-0.37026
-0.37964
-0.37664
-0.34768
-0.35869
-0.36865
-0.34081
-0.31311
-0.32693
-0.32863
-0.30738
-0.28974
-0.31808
-0.34606
-0.30896
-0.26755
-0.25114
-0.26378
-0.26514
-0.23490
-0.21133
-0.22876
-0.21210
-0.19599
-0.20382
-0.20394
-0.18892
-0.17625
-0.16331
-0.15862
-0.16856
-0.16211
-0.13194
-0.13345
-0.13809
-0.11668
-0.10745
-0.10255
-0.12323
-0.12190
-0.11413
-0.10981
-0.11541
-0.12346
-0.09782
-0.09729
-0.13704
-0.16503
-0.14504
-0.14554
-0.19762
-0.22466
-0.21435
-0.20964
-0.24068
-0.27282
-0.28121
-0.27832
-0.30378
-0.32083
-0.30409
-0.29069
-0.30486
-0.34221
-0.32882
-0.29685
-0.29316
-0.30958
-0.30476
-0.29807
-0.29233
-0.30012
-0.32622
-0.29239
-0.28360
-0.30218
-0.28887
-0.26663
-0.25608
-0.27151
-0.27910
-0.24961
-0.22876
-0.25046
-0.26284
-0.26678
-0.25045
-0.25571
-0.27486
-0.25806
-0.21917
-0.22668
-0.24595
-0.25821
-0.23911
-0.23187
-0.25380
-0.26647
-0.23491
-0.21409
-0.23277
-0.25517
-0.23699
-0.21553
-0.24326
-0.27339
-0.25663
-0.23849
-0.24006
-0.26316
-0.24773
-0.23006
-0.25606
-0.26998
-0.26340
-0.23832
-0.23797
-0.27467
-0.27121
-0.26403
-0.26235
-0.26407
-0.26344
-0.24695
-0.22980
-0.25452
-0.26985
-0.23529
-0.24295
-0.25996
-0.26826
-0.24712
-0.21858
-0.23984
-0.25511
-0.24239
-0.22576
-0.23180
-0.24209
-0.23638
-0.24923
-0.25913
-0.26283
-0.24988
-0.23441
-0.24594
-0.26005
-0.25053
-0.24461
-0.23912
-0.25745
-0.26698
-0.26367
-0.25663
-0.25307
-0.25199
-0.24378
-0.23335
-0.26098
-0.27133
-0.26805
-0.22596
-0.24151
-0.27106
-0.25421
-0.22594
-0.22765
-0.24515
-0.23760
-0.21615
-0.21014
-0.24344
-0.25404
-0.20984
-0.18028
-0.20521
-0.21840
-0.21642
-0.19720
-0.22468
-0.25102
-0.21736
-0.19287
-0.20420
-0.22494
-0.23331
-0.22695
-0.21955
-0.23505
-0.22262
-0.19615
-0.21018
-0.22784
-0.22629
-0.19302
-0.20412
-0.23982
-0.24013
-0.17599
-0.18841
-0.21014
-0.21306
-0.19997
-0.17456
-0.16374
-0.11934
0.01691
0.14801
0.33168
0.59446
0.89331
1.16062
1.31360
1.29293
1.02862
0.62377
0.13664
-0.30189
-0.40398
-0.27965
-0.21194
-0.20870
-0.23782
-0.25385
-0.25706
-0.27400
-0.28555
-0.27958
-0.29327
-0.30440
-0.30324
-0.29034
-0.28614
-0.30096
-0.30209
-0.30313
-0.26854
-0.27124
-0.29359
-0.29082
-0.28843
-0.30022
-0.31406
-0.31125
-0.28566
-0.26553
-0.27851
-0.29260
-0.26948
-0.27743
-0.30450
-0.30644
-0.27786
-0.25731
-0.26803
-0.26605
-0.25785
-0.23890
-0.23616
-0.23028
-0.19158
-0.18125
-0.18203
-0.17761
-0.17564
-0.13257
-0.11282
-0.12259
-0.08847
-0.04905
-0.04143
-0.02584
-0.02694
0.00390
0.01532
-0.00403
-0.00897
0.00843
0.01123
0.00767
-0.01135
-0.02431
-0.02494
-0.05457
-0.08585
-0.08791
-0.08500
-0.11440
-0.11896
-0.13292
-0.14452
-0.17600
-0.21847
-0.22619
-0.20025
-0.18798
-0.20992
-0.23529
-0.21292
-0.22546
-0.24383
-0.24845
-0.22355
-0.22770
-0.25198
-0.27995
-0.26504
-0.24267
-0.26030
-0.26809
-0.28002
-0.27315
-0.26078
-0.24868
-0.23998
-0.24714
-0.25184
-0.26673
-0.28323
-0.22834
-0.21411
-0.25426
-0.27150
-0.24737
-0.23395
-0.24885
-0.23624
-0.20964
-0.20318
-0.21594
-0.22529
-0.21840
-0.19440
-0.20826
-0.21465
-0.20018
-0.18374
-0.18886
-0.21900
-0.21266
-0.19919
-0.20604
-0.22941
-0.24551
-0.22005
-0.21503
-0.23253
-0.23782
-0.21618
-0.22539
-0.24153
-0.24345
-0.25761
-0.25524
-0.25175
-0.25347
-0.24837
-0.24334
-0.23683
-0.24734
-0.24149
-0.22364
-0.21806
-0.23385
-0.22755
-0.21287
-0.21377
-0.22966
-0.22642
-0.20081
-0.18945
-0.22179
-0.20868
-0.18819
-0.18502
-0.21196
-0.21020
-0.20755
-0.21081
-0.22580
-0.18046
-0.07581
0.06267
0.21219
0.37745
0.61465
0.90694
1.16151
1.33562
1.35704
1.12971
0.71913
0.27116
-0.18513
-0.46159
-0.46896
-0.37756
-0.32500
-0.26513
-0.23991
-0.28526
-0.29068
-0.27925
-0.28683
-0.32253
-0.32853
-0.31916
-0.30014
-0.31609
-0.32431
-0.31711
-0.30431
-0.30302
-0.32911
-0.32134
-0.29854
-0.31570
-0.33573
-0.32017
-0.30810
-0.32027
-0.34860
-0.34262
-0.30654
-0.30011
-0.31687
-0.32546
-0.28969
-0.26462
-0.28259
-0.29711
-0.26943
-0.25009
-0.25492
-0.27930
-0.26505
-0.22598
-0.21635
-0.21383
-0.20270
-0.17728
-0.19252
-0.20486
-0.16321
-0.12394
-0.10661
-0.10599
-0.08365
-0.04705
-0.04116
-0.06166
-0.04904
-0.04109
-0.03296
-0.04650
-0.07807
-0.03287
-0.03435
-0.03448
-0.04460
-0.05135
-0.04629
-0.09354
-0.10735
-0.12274
-0.12724
-0.16848
-0.20032
-0.20350
-0.21019
-0.24170
-0.27178
-0.25474
-0.25611
-0.29008
-0.31678
-0.29648
-0.28016
-0.27254
-0.26983
-0.27558
-0.27158
-0.26475
-0.27962
-0.30742
-0.30199
-0.26857
-0.27523
-0.28720
-0.27175
-0.27361
-0.27502
-0.27544
-0.26497
-0.24328
-0.25080
-0.26682
-0.27364
-0.25328
-0.23824
-0.24734
-0.26333
-0.25279
-0.22881
-0.23283
-0.24142
-0.24420
-0.22538
-0.24733
-0.25576
-0.24640
-0.22641
-0.23932
-0.26006
-0.24275
-0.22874
-0.22880
-0.25875
-0.25584
-0.25934
-0.25165
-0.26563
-0.27608
-0.23619
-0.21820
-0.25470
-0.27240
-0.23979
-0.21609
-0.24196
-0.24782
-0.23587
-0.21179
-0.24032
-0.26195
-0.24812
-0.22984
-0.23434
-0.25075
-0.24483
-0.23711
-0.24405
-0.25437
-0.24625
-0.24315
-0.23510
-0.25946
-0.28131
-0.26053
-0.25020
-0.27534
-0.28432
-0.26175
-0.23459
-0.23078
-0.25000
-0.23662
-0.21716
-0.23710
-0.26589
-0.24884
-0.20415
-0.17705
-0.13679
-0.04681
0.07744
0.23032
0.43438
0.70556
1.01356
1.28073
1.40754
1.30376
0.97237
0.52622
0.07388
-0.30637
-0.40500
-0.33042
-0.28569
-0.27569
-0.27491
-0.28462
-0.30891
-0.31637
-0.29550
-0.29546
-0.33470
-0.33586
-0.31938
-0.31229
-0.31972
-0.32726
-0.33096
-0.31943
-0.32079
-0.33241
-0.32647
-0.31431
-0.33133
-0.35991
-0.36065
-0.33125
-0.31397
-0.33679
-0.33508
-0.33274
-0.31694
-0.33607
-0.32734
-0.30419
-0.29696
-0.30775
-0.32254
-0.33307
-0.30184
-0.30831
-0.31599
-0.29611
-0.25169
-0.26207
-0.27124
-0.24592
-0.22594
-0.20883
-0.22033
-0.21653
-0.18071
-0.16337
-0.15900
-0.16469
-0.13794
-0.11237
-0.09818
-0.11573
-0.10326
-0.07902
-0.08687
-0.07670
-0.05570
-0.03688
-0.03129
-0.04301
-0.04542
-0.04133
-0.06264
-0.09092
-0.10028
-0.08157
-0.08502
-0.12071
-0.16685
-0.16650
-0.17888
-0.20438
-0.23241
-0.21809
-0.19809
-0.21775
-0.25314
-0.24320
-0.22597
-0.25254
-0.26622
-0.25263
-0.23432
-0.25067
-0.28026
-0.27695
-0.23487
-0.23461
-0.26137
-0.26890
-0.24349
-0.24325
-0.25222
-0.23456
-0.20289
-0.16588
-0.17583
-0.15731
-0.11545
-0.09967
-0.08540
-0.05232
0.04877
0.15429
0.22615
0.28625
0.37075
0.47368
0.55745
0.63416
0.75669
0.89660
1.00443
1.05381
1.03561
1.02873
1.01778
0.98165
0.88848
0.78024
0.61530
0.42628
0.29306
0.17805
0.10739
0.02372
-0.00653
-0.01131
-0.01867
0.01329
0.08200
0.19898
0.24178
0.13820
-0.09280
-0.29854
-0.38868
-0.45268
-0.49525
-0.51949
-0.53464
-0.54972
-0.59518
-0.59819
-0.61884
-0.63570
-0.66074
-0.67424
-0.66055
-0.67599
-0.71680
-0.72431
-0.70515
-0.67763
-0.69657
-0.73118
-0.73265
-0.72830
-0.75255
-0.77111
-0.76692
-0.77517
-0.79279
-0.81369
-0.79043
-0.76561
-0.78380
-0.79162
-0.78510
-0.76688
-0.78912
-0.80005
-0.79120
-0.76472
-0.76072
-0.79358
-0.79835
-0.78328
-0.75992
-0.75957
-0.78568
-0.74380
-0.71777
-0.72512
-0.73153
-0.67152
-0.62410
-0.59263
-0.59392
-0.57846
-0.52328
-0.49715
-0.49588
-0.46109
-0.40977
-0.38316
-0.39597
-0.37193
-0.34419
-0.32692
-0.33244
-0.34071
-0.31867
-0.33009
-0.31795
-0.31486
-0.30614
-0.28917
-0.28886
-0.30216
-0.30008
-0.29455
-0.30716
-0.30378
-0.31095
-0.29939
-0.30068
-0.30390
-0.30437
-0.28390
-0.29080
-0.32768
-0.31977
-0.28658
-0.27186
-0.28974
-0.29162
-0.27897
-0.27485
-0.28719
-0.27829
-0.26278
-0.24324
-0.24813
-0.25489
-0.24482
-0.22269
-0.24014
-0.27814
-0.25989
-0.23665
-0.24636
-0.28948
-0.25459
-0.22887
-0.22750
-0.27587
-0.26771
-0.22899
-0.23009
-0.25032
-0.25935
-0.23638
-0.24317
-0.25010
-0.26398
-0.24494
-0.23632
-0.24831
-0.26897
-0.27651
-0.26566
-0.26733
-0.27904
-0.28453
-0.26515
-0.26198
-0.28790
-0.28483
-0.27709
-0.27502
-0.29927
-0.29583
-0.27090
-0.24940
-0.24474
-0.28110
-0.27077
-0.24857
-0.27169
-0.28053
-0.25811
-0.25210
-0.27893
-0.30723
-0.28665
-0.26373
-0.26609
-0.28108
-0.26010
-0.26013
-0.27179
-0.28091
-0.29615
-0.26830
-0.24377
-0.25913
-0.26147
-0.26876
-0.25819
-0.25763
-0.27722
-0.25594
-0.24327
-0.24016
-0.25044
-0.24753
-0.22764
-0.24330
-0.25720
-0.25415
-0.22774
-0.23054
-0.25192
-0.23354
-0.20157
-0.21262
-0.23973
-0.23242
-0.22003
-0.18523
-0.17252
-0.14546
-0.06509
0.05548
0.20066
0.37302
0.60229
0.85769
1.08495
1.26183
1.36145
1.26014
0.94592
0.55800
0.17007
-0.17587
-0.39251
-0.42027
-0.32823
-0.26540
-0.26033
-0.29036
-0.30086
-0.29512
-0.28620
-0.31218
-0.32686
-0.31066
-0.31688
-0.31953
-0.32059
-0.29819
-0.29375
-0.30733
-0.31782
-0.29837
-0.28087
-0.32373
-0.32133
-0.30704
-0.30337
-0.29153
-0.33816
-0.33594
-0.30214
-0.29484
-0.32038
-0.32618
-0.31524
-0.31009
-0.30924
-0.31886
-0.30616
-0.29613
-0.31888
-0.31403
-0.29823
-0.27856
-0.28826
-0.30523
-0.27503
-0.26311
-0.27321
-0.27418
-0.25278
-0.22182
-0.22242
-0.23061
-0.22197
-0.18348
-0.17754
-0.17676
-0.16454
-0.12016
-0.10956
-0.14165
-0.13019
-0.10959
-0.07705
-0.08925
-0.09787
-0.08277
-0.06503
-0.06547
-0.06127
-0.05279
-0.05258
-0.06561
-0.06183
-0.06251
-0.04690
-0.07294
-0.10971
-0.12499
-0.11795
-0.13960
-0.16568
-0.17035
-0.17321
-0.18334
-0.23143
-0.24867
-0.22818
-0.22296
-0.28300
-0.28218
-0.25734
-0.25159
-0.25881
-0.28441
-0.26195
-0.23987
-0.24961
-0.26224
-0.24611
-0.22897
-0.23745
-0.25919
-0.25251
-0.24959
-0.25407
-0.25455
-0.24826
-0.23958
-0.23250
-0.23591
-0.23182
-0.21770
-0.20297
-0.21925
-0.23373
-0.21280
-0.20526
-0.23173
-0.24533
-0.22928
-0.20894
-0.22257
-0.23061
-0.22457
-0.20419
-0.22078
-0.25038
-0.25348
-0.21877
-0.20176
-0.22578
-0.23217
-0.21833
-0.21051
-0.21967
-0.23235
-0.22050
-0.22571
-0.24607
-0.24236
-0.21308
-0.20581
-0.22117
-0.23457
-0.22502
-0.22430
-0.21964
-0.23817
-0.23058
-0.23246
-0.24749
-0.24285
-0.23588
-0.23024
-0.21262
-0.22622
-0.24334
-0.23694
-0.22488
-0.20939
-0.15319
-0.03642
0.09836
0.24829
0.50619
0.82585
1.16082
1.38976
1.40168
1.17714
0.77341
0.29527
-0.15338
-0.42656
-0.42724
-0.35774
-0.31208
-0.28869
-0.26789
-0.26691
-0.28041
-0.30045
-0.30661
-0.30876
-0.32551
-0.35193
-0.34976
-0.33336
-0.34201
-0.33510
-0.33070
-0.32763
-0.35344
-0.36519
-0.34906
-0.34270
-0.35689
-0.37010
-0.35678
-0.34237
-0.35298
-0.37022
-0.37713
-0.36442
-0.36763
-0.37742
-0.37075
-0.35529
-0.36147
-0.35840
-0.36889
-0.33770
-0.31549
-0.33260
-0.32612
-0.29178
-0.27411
-0.30286
-0.29155
-0.24744
-0.22988
-0.23719
-0.22859
-0.18960
-0.17313
-0.18750
-0.21222
-0.21192
-0.17509
-0.16669
-0.17605
-0.17022
-0.15085
-0.16257
-0.18905
-0.17418
-0.14459
-0.14535
-0.17703
-0.17739
-0.16392
-0.15580
-0.17814
-0.19342
-0.18982
-0.19345
-0.23852
-0.24855
-0.25014
-0.23130
-0.23998
-0.28807
-0.29739
-0.29456
-0.29696
-0.31413
-0.31883
-0.30520
-0.30149
-0.32349
-0.32527
-0.32262
-0.32607
-0.35979
-0.37042
-0.34012
-0.34885
-0.34596
-0.35446
-0.33079
-0.31234
-0.33007
-0.35460
-0.33306
-0.31103
-0.33572
-0.34206
-0.32586
-0.29466
-0.30084
-0.32170
-0.32761
-0.29838
-0.29623
-0.31305
-0.31110
-0.28316
-0.27091
-0.29356
-0.29010
-0.27959
-0.27891
-0.31687
-0.33504
-0.31141
-0.30680
-0.33851
-0.35819
-0.32249
-0.30891
-0.32483
-0.34561
-0.34233
-0.32496
-0.33166
-0.34750
-0.33415
-0.29434
-0.30432
-0.33335
-0.32734
-0.31327
-0.29989
-0.32179
-0.32501
-0.29294
-0.28324
-0.29655
-0.31548
-0.30869
-0.30080
-0.31791
-0.33683
-0.30160
-0.28250
-0.28835
-0.30144
-0.27251
-0.24136
-0.25096
-0.25540
-0.26337
-0.25615
-0.25084
-0.21873
-0.16360
-0.04434
0.09033
0.25957
0.50752
0.80282
1.10180
1.32244
1.39792
1.25200
0.87639
0.39964
-0.05479
-0.38416
-0.46280
-0.40530
-0.35166
-0.31715
-0.30654
-0.31421
-0.34782
-0.34904
-0.33186
-0.33813
-0.36689
-0.35749
-0.34499
-0.35768
-0.37985
-0.37829
-0.35661
-0.34206
-0.35749
-0.36310
-0.35024
-0.35031
-0.36462
-0.38560
-0.37213
-0.34893
-0.37380
-0.39036
-0.36964
-0.33677
-0.34389
-0.36167
-0.35246
-0.32284
-0.32940
-0.35789
-0.33716
-0.31026
-0.30125
-0.31121
-0.30569
-0.27014
-0.25489
-0.26966
-0.27594
-0.24783
-0.22060
-0.22523
-0.21112
-0.18973
-0.15818
-0.16630
-0.16188
-0.13853
-0.11324
-0.10984
-0.11777
-0.10459
-0.08590
-0.07075
-0.08481
-0.09726
-0.06827
-0.06942
-0.09991
-0.09578
-0.08881
-0.09496
-0.11906
-0.15036
-0.15694
-0.15917
-0.18333
-0.20928
-0.21279
-0.22286
-0.25255
-0.25750
-0.23640
-0.23177
-0.25585
-0.27636
-0.26232
-0.25660
-0.24806
-0.25192
-0.26049
-0.22807
-0.21179
-0.19745
-0.15896
-0.12917
-0.07782
-0.04751
0.04184
0.17364
0.25336
0.33235
0.44477
0.59307
0.72481
0.86793
1.00948
1.14983
1.21935
1.19206
1.14543
1.11683
1.07866
0.93870
0.73202
0.54503
0.38894
0.21872
0.06963
0.02307
0.04349
0.01939
0.00427
0.09118
0.27703
0.34318
0.17525
-0.11612
-0.36325
-0.46078
-0.51120
-0.54540
-0.56376
-0.58469
-0.62646
-0.68318
-0.69583
-0.69633
-0.71762
-0.74696
-0.76370
-0.74893
-0.75985
-0.78289
-0.78791
-0.76876
-0.76878
-0.78526
-0.78775
-0.78016
-0.76539
-0.79377
-0.79460
-0.79620
-0.78115
-0.78960
-0.79582
-0.77867
-0.76578
-0.76557
-0.77870
-0.75546
-0.74152
-0.74651
-0.75570
-0.74715
-0.70569
-0.69264
-0.71064
-0.69725
-0.65380
-0.62749
-0.61452
-0.58832
-0.53476
-0.49350
-0.48042
-0.47590
-0.43608
-0.40635
-0.39517
-0.40751
-0.38859
-0.34363
-0.33895
-0.35096
-0.33966
-0.32751
-0.34042
-0.35276
-0.35416
-0.32937
-0.33740
-0.36476
-0.36940
-0.35134
-0.32995
-0.35065
-0.34881
-0.32539
-0.33060
-0.35337
-0.37749
-0.35027
-0.33754
-0.34276
-0.34359
-0.33392
-0.31504
-0.32416
-0.32027
-0.30897
-0.29477
-0.31785
-0.32371
-0.31033
-0.27838
-0.28654
-0.30089
-0.30774
-0.28379
-0.26816
-0.29199
-0.30874
-0.29522
-0.28869
-0.30063
-0.30844
-0.29376
-0.28458
-0.28536
-0.29697
-0.28318
-0.28221
-0.28900
-0.30965
-0.32275
-0.31251
-0.30755
-0.31328
-0.31525
-0.28639
-0.29130
-0.31637
-0.30104
-0.28657
-0.29480
-0.32459
-0.31740
-0.30090
-0.29981
-0.31941
-0.32907
-0.31650
-0.29843
-0.31223
-0.32927
-0.32158
-0.30097
-0.31092
-0.33254
-0.33385
-0.31723
-0.32606
-0.32949
-0.33188
-0.31851
-0.31860
-0.34108
-0.33128
-0.29378
-0.30057
-0.32169
-0.33409
-0.31769
-0.31271
-0.32611
-0.31818
-0.30502
-0.29282
-0.30266
-0.33589
-0.31874
-0.29003
-0.28934
-0.31642
-0.34047
-0.30992
-0.32211
-0.32358
-0.32327
-0.30614
-0.31793
-0.33486
-0.33347
-0.32000
-0.31262
-0.31411
-0.32720
-0.32315
-0.33232
-0.33937
-0.33205
-0.32733
-0.30551
-0.30764
-0.31512
-0.30121
-0.29080
-0.30164
-0.32819
-0.32032
-0.29281
-0.28399
-0.30540
-0.30612
-0.27370
-0.28310
-0.28320
-0.28394
-0.26893
-0.30074
-0.29886
-0.30486
-0.29072
-0.27387
-0.29164
-0.30233
-0.28335
-0.28118
-0.29889
-0.30313
-0.29173
-0.27755
-0.30346
-0.32390
-0.33007
-0.29481
-0.30368
-0.32066
-0.29876
-0.27212
-0.26860
-0.29823
-0.30852
-0.29918
-0.26425
-0.28061
-0.30065
-0.26992
-0.25861
-0.27654
-0.27799
-0.26935
-0.24895
-0.24799
-0.26679
-0.21574
-0.11627
0.01604
0.17951
0.42094
0.69167
0.97680
1.23805
1.38819
1.27754
0.88061
0.40516
-0.02170
-0.32966
-0.39748
-0.32309
-0.26450
-0.27946
-0.28409
-0.30813
-0.32524
-0.32266
-0.31764
-0.33015
-0.35532
-0.34926
-0.34400
-0.36724
-0.38523
-0.37965
-0.37090
-0.37287
-0.38831
-0.38874
-0.37003
-0.37013
-0.37618
-0.39706
-0.35557
-0.35170
-0.37690
-0.37282
-0.34949
-0.33891
-0.35044
-0.35677
-0.34228
-0.31558
-0.32308
-0.34758
-0.34547
-0.30632
-0.32678
-0.32230
-0.29832
-0.28285
-0.29253
-0.29760
-0.29251
-0.26539
-0.26343
-0.26380
-0.25541
-0.23682
-0.23188
-0.24562
-0.22562
-0.20693
-0.18928
-0.18443
-0.16908
-0.15176
-0.12683
-0.12304
-0.12298
-0.10018
-0.06902
-0.07788
-0.08884
-0.07749
-0.05986
-0.07190
-0.09845
-0.09555
-0.09054
-0.09413
-0.12180
-0.14539
-0.14627
-0.16396
-0.20022
-0.22236
-0.22264
-0.21836
-0.24842
-0.27976
-0.26374
-0.26074
-0.28103
-0.31040
-0.31323
-0.30078
-0.30993
-0.33152
-0.31904
-0.28050
-0.29083
-0.31977
-0.30048
-0.26704
-0.28561
-0.30283
-0.29367
-0.26952
-0.27262
-0.27854
-0.28256
-0.26668
-0.25341
-0.26669
-0.29563
-0.27449
-0.24338
-0.27250
-0.29650
-0.27458
-0.24887
-0.25312
-0.27917
-0.27488
-0.24840
-0.26919
-0.29097
-0.29430
-0.26987
-0.26950
-0.29574
-0.30405
-0.28952
-0.27664
-0.28990
-0.31619
-0.30761
-0.28292
-0.30998
-0.32203
-0.30147
-0.28493
-0.30166
-0.31097
-0.30927
-0.28438
-0.31163
-0.33362
-0.31281
-0.29119
-0.29254
-0.30533
-0.30923
-0.28794
-0.29549
-0.31917
-0.32873
-0.32198
-0.30071
-0.32103
-0.33081
-0.30574
-0.29682
-0.32509
-0.34745
-0.33181
-0.31947
-0.33521
-0.33266
-0.32401
-0.29823
-0.29882
-0.32431
-0.32437
-0.29615
-0.31263
-0.34352
-0.34075
-0.31584
-0.31470
-0.34060
-0.33308
-0.33232
-0.30818
-0.33627
-0.33482
-0.31018
-0.30979
-0.33514
-0.33797
-0.31828
-0.30833
-0.32756
-0.35244
-0.34472
-0.33060
-0.32997
-0.34703
-0.33290
-0.30241
-0.31785
-0.34667
-0.33253
-0.32209
-0.32660
-0.34115
-0.33523
-0.32593
-0.32756
-0.33014
-0.32543
-0.29484
-0.27804
-0.29339
-0.29057
-0.27453
-0.25712
-0.25354
-0.29037
-0.30226
-0.25535
-0.26956
-0.28400
-0.27467
-0.25233
-0.25462
-0.26075
-0.21619
-0.10140
0.03500
0.17680
0.44682
0.75256
1.03721
1.28097
1.38899
1.24349
0.79031
0.28131
-0.15807
-0.43901
-0.44884
-0.33243
-0.27302
-0.27179
-0.28588
-0.30696
-0.32486
-0.34378
-0.31894
-0.32755
-0.34675
-0.36301
-0.37314
-0.36526
-0.37311
-0.36876
-0.35148
-0.34279
-0.37470
-0.38200
-0.35626
-0.35879
-0.38129
-0.38862
-0.37950
-0.36319
-0.36949
-0.37092
-0.35687
-0.34095
-0.35914
-0.35603
-0.34533
-0.33490
-0.33295
-0.32907
-0.30596
-0.29463
-0.30557
-0.30269
-0.26979
-0.24352
-0.23474
-0.24449
-0.23452
-0.19932
-0.18199
-0.18811
-0.18471
-0.16496
-0.15149
-0.15066
-0.15239
-0.13836
-0.12387
-0.13070
-0.14278
-0.13571
-0.13337
-0.13345
-0.15534
-0.14965
-0.11927
-0.14475
-0.15231
-0.15509
-0.14945
-0.13965
-0.15882
-0.17513
-0.17359
-0.17885
-0.21068
-0.22077
-0.22438
-0.20823
-0.24854
-0.26982
-0.25684
-0.24403
-0.25137
-0.25998
-0.25139
-0.26867
-0.27909
-0.30265
-0.29381
-0.28855
-0.28816
-0.29812
-0.30536
-0.29179
-0.29130
-0.30712
-0.31937
-0.28374
-0.26557
-0.28828
-0.30280
-0.28627
-0.27368
-0.27315
-0.29755
-0.27573
-0.25033
-0.25369
-0.26135
-0.25530
-0.22215
-0.23333
-0.25349
-0.23240
-0.21097
-0.20882
-0.23594
-0.24902
-0.24019
-0.23756
-0.27451
-0.28570
-0.25747
-0.25612
-0.30013
-0.29921
-0.27086
-0.26820
-0.29046
-0.27492
-0.27233
-0.25643
-0.26686
-0.28312
-0.28211
-0.27849
-0.27034
-0.29121
-0.28754
-0.25857
-0.25317
-0.27984
-0.26174
-0.23585
-0.22842
-0.24967
-0.25480
-0.23209
-0.20737
-0.24826
-0.26881
-0.23465
-0.24126
-0.27093
-0.27558
-0.25281
-0.24821
-0.24667
-0.26822
-0.27521
-0.24331
-0.24703
-0.25952
-0.26050
-0.23680
-0.23121
-0.25120
-0.24312
-0.24261
-0.24925
-0.25948
-0.26267
-0.23272
-0.21840
-0.24615
-0.25307
-0.21142
-0.18968
-0.23400
-0.23367
-0.20693
-0.20054
-0.20963
-0.21997
-0.20099
-0.20468
-0.22055
-0.22817
-0.20730
-0.18153
-0.19720
-0.21282
-0.18285
-0.14431
-0.07836
-0.00062
0.10382
0.31598
0.60247
0.84001
1.09189
1.34728
1.48760
1.37272
1.05508
0.67097
0.27562
-0.18751
-0.49815
-0.47031
-0.31994
-0.27106
-0.27281
-0.25130
-0.25865
-0.27787
-0.28659
-0.30216
-0.29235
-0.28882
-0.31609
-0.30606
-0.27474
-0.27399
-0.30020
-0.30766
-0.30316
-0.28663
-0.31018
-0.33116
-0.31111
-0.29587
-0.29048
-0.31699
-0.31651
-0.30168
-0.29462
-0.29960
-0.28105
-0.24888
-0.26353
-0.27010
-0.27774
-0.25606
-0.24713
-0.26735
-0.27401
-0.25640
-0.25322
-0.27538
-0.25462
-0.25332
-0.24807
-0.23733
-0.23749
-0.21235
-0.19267
-0.18065
-0.17957
-0.16091
-0.13490
-0.12271
-0.13175
-0.09904
-0.06197
-0.06110
-0.06699
-0.06395
-0.00776
0.00425
-0.02482
-0.03723
-0.00466
0.01533
-0.00917
-0.02145
-0.00469
0.01261
-0.00030
-0.02281
-0.01864
0.00269
-0.03071
-0.08431
-0.06533
-0.05593
-0.07163
-0.11150
-0.11730
-0.11145
-0.13391
-0.15367
-0.17342
-0.18541
-0.18884
-0.19154
-0.20583
-0.19382
-0.17976
-0.21532
-0.21558
-0.19525
-0.19026
-0.21410
-0.23387
-0.21738
-0.18999
-0.19088
-0.14168
-0.09469
-0.05586
-0.04728
0.01107
0.13261
0.24347
0.33194
0.40720
0.54601
0.65264
0.73845
0.84013
1.00071
1.14169
1.20239
1.17479
1.13145
1.14166
1.10880
0.99495
0.82903
0.66716
0.48608
0.28274
0.13066
0.04317
0.01451
-0.01925
-0.06486
-0.05498
0.02166
0.14810
0.22062
0.13715
-0.06596
-0.27277
-0.40020
-0.43485
-0.42829
-0.46507
-0.50857
-0.53324
-0.53458
-0.55920
-0.59112
-0.61338
-0.60451
-0.59596
-0.62766
-0.65557
-0.64598
-0.61886
-0.64111
-0.64644
-0.64820
-0.65537
-0.66534
-0.70306
-0.70334
-0.70028
-0.71138
-0.75770
-0.77006
-0.75052
-0.74642
-0.78541
-0.78919
-0.76415
-0.76729
-0.79467
-0.78911
-0.76643
-0.76375
-0.78233
-0.78113
-0.75368
-0.72826
-0.74264
-0.74585
-0.73447
-0.70199
-0.69558
-0.70663
-0.69110
-0.63680
-0.60613
-0.60762
-0.58406
-0.54573
-0.51515
-0.51131
-0.48964
-0.43217
-0.38333
-0.36628
-0.36961
-0.34698
-0.30849
-0.30276
-0.30453
-0.29744
-0.28160
-0.28146
-0.29113
-0.25722
-0.24012
-0.25645
-0.26965
-0.27949
-0.25354
-0.24698
-0.26098
-0.26097
-0.24345
-0.23658
-0.24914
-0.26122
-0.25790
-0.24255
-0.25307
-0.26336
-0.24268
-0.21712
-0.22653
-0.25115
-0.23984
-0.22509
-0.23290
-0.24894
-0.24060
-0.21749
-0.21336
-0.21421
-0.20639
-0.18695
-0.19542
-0.20999
-0.21439
-0.20549
-0.21667
-0.26268
-0.25496
-0.21140
-0.20766
-0.23292
-0.24690
-0.23407
-0.23015
-0.25158
-0.25421
-0.24828
-0.23297
-0.23675
-0.27745
-0.26043
-0.22755
-0.23877
-0.25763
-0.25325
-0.22644
-0.21764
-0.24350
-0.25904
-0.22308
-0.21997
-0.23897
-0.23997
-0.21282
-0.19956
-0.21806
-0.22612
-0.20562
-0.19585
-0.21988
-0.21606
-0.18148
-0.18919
-0.23212
-0.25563
-0.22471
-0.20404
-0.22654
-0.25727
-0.25027
-0.24415
-0.25016
-0.25931
-0.22516
-0.20933
-0.20957
-0.22667
-0.22211
-0.20939
-0.20768
-0.21335
-0.24397
-0.22642
-0.21964
-0.25078
-0.26568
-0.23749
-0.22208
-0.25845
-0.23848
-0.22423
-0.21309
-0.20988
-0.22668
-0.22935
-0.21499
-0.20748
-0.23027
-0.21840
-0.20160
-0.20936
-0.23672
-0.23772
-0.21692
-0.20905
-0.24130
-0.24567
-0.21176
-0.20354
-0.22064
-0.21831
-0.23558
-0.22946
-0.22576
-0.23361
-0.22723
-0.22667
-0.23706
-0.24341
-0.21681
-0.19481
-0.20999
-0.22224
-0.21027
-0.20717
-0.20135
-0.22160
-0.21170
-0.19636
-0.18261
-0.22190
-0.22113
-0.18246
-0.17768
-0.18730
-0.19194
-0.18579
-0.18023
-0.19380
-0.21056
-0.21511
-0.20037
-0.19853
-0.19548
-0.19034
-0.15932
-0.16636
-0.18231
-0.18262
-0.17096
-0.18522
-0.21045
-0.20734
-0.19132
-0.17540
-0.19444
-0.18995
-0.15572
-0.13768
-0.13685
-0.08030
0.04505
0.19596
0.38371
0.64241
0.94565
1.22693
1.46665
1.54145
1.37966
0.98494
0.49328
-0.00486
-0.34463
-0.37003
-0.26162
-0.19831
-0.17607
-0.18161
-0.20229
-0.23155
-0.24240
-0.23189
-0.22654
-0.24281
-0.26734
-0.27216
-0.25830
-0.25711
-0.28393
-0.26485
-0.24983
-0.25869
-0.28625
-0.26360
-0.23992
-0.23952
-0.26008
-0.26554
-0.25377
-0.25956
-0.26741
-0.26654
-0.23638
-0.23049
-0.26653
-0.26832
-0.23931
-0.23386
-0.25327
-0.24751
-0.22260
-0.20238
-0.21229
-0.21275
-0.19677
-0.17002
-0.18323
-0.18571
-0.15416
-0.13724
-0.15507
-0.15975
-0.12254
-0.08681
-0.07597
-0.07016
-0.06632
-0.02969
-0.01422
-0.01421
-0.01040
0.01733
0.03032
0.01135
0.02040
0.04039
0.04303
0.02907
0.04170
0.03404
0.03653
0.02071
-0.00187
0.01279
0.03537
0.02317
-0.01006
-0.04079
-0.03625
-0.04399
-0.08472
-0.08659
-0.08621
-0.10747
-0.13098
-0.13909
-0.13202
-0.12711
-0.14154
-0.15671
-0.14404
-0.13417
-0.15743
-0.17657
-0.15786
-0.15838
-0.15507
-0.17050
-0.16342
-0.14441
-0.16023
-0.15927
-0.16288
-0.13291
-0.14043
-0.16490
-0.18004
-0.14587
-0.12538
-0.14317
-0.15014
-0.13522
-0.11897
-0.13757
-0.14455
-0.12186
-0.09461
-0.11468
-0.12398
-0.10786
-0.10503
-0.11498
-0.12661
-0.10846
-0.08442
-0.09882
-0.11250
-0.11258
-0.08891
-0.09631
-0.13347
-0.11918
-0.11417
-0.10763
-0.12553
-0.13581
-0.12250
-0.11963
-0.13504
-0.15431
-0.13580
-0.12650
-0.14628
-0.17216
-0.16183
-0.13923
-0.13794
-0.13700
-0.09156
0.03556
0.14370
0.29086
0.57809
0.93564
1.28899
1.53360
1.64881
1.61470
1.29021
0.77698
0.21809
-0.27711
-0.47166
-0.38731
-0.28609
-0.21300
-0.18719
-0.20736
-0.22694
-0.21685
-0.22734
-0.26385
-0.28776
-0.25666
-0.24664
-0.24890
-0.26562
-0.26610
-0.25010
-0.26298
-0.27726
-0.25531
-0.23301
-0.23520
-0.26720
-0.25282
-0.23736
-0.24259
-0.24075
-0.24056
-0.21928
-0.22338
-0.24871
-0.27474
-0.26389
-0.24902
-0.23201
-0.25180
-0.23069
-0.19975
-0.20661
-0.23350
-0.20371
-0.17392
-0.17366
-0.18948
-0.18594
-0.15623
-0.16910
-0.17632
-0.14402
-0.10241
-0.09551
-0.10219
-0.08570
-0.06735
-0.05275
-0.02861
-0.02903
0.00384
0.01433
0.00188
-0.02434
0.01388
0.04981
0.05121
0.01823
0.03328
0.03574
0.01319
-0.00611
0.00506
-0.00569
-0.02806
-0.07072
-0.08414
-0.06745
-0.08467
-0.12715
-0.15449
-0.15837
-0.15175
-0.18477
-0.21042
-0.21464
-0.21544
-0.22113
-0.25408
-0.25079
-0.23027
-0.25418
-0.28058
-0.26593
-0.24782
-0.24838
-0.25793
-0.24660
-0.22337
-0.21194
-0.22573
-0.22563
-0.21751
-0.21975
-0.22653
-0.22309
-0.19936
-0.19155
-0.20252
-0.20476
-0.17975
-0.17027
-0.19227
-0.20033
-0.17578
-0.16591
-0.17151
-0.19072
-0.18731
-0.17996
-0.18424
-0.20067
-0.20201
-0.18779
-0.20930
-0.22332
-0.21381
-0.19403
-0.18308
-0.20498
-0.22029
-0.20357
-0.20626
-0.22641
-0.22110
-0.20659
-0.20240
-0.22981
-0.23098
-0.21279
-0.20238
-0.20343
-0.22111
-0.21197
-0.19330
-0.20264
-0.22757
-0.22701
-0.20924
-0.21443
-0.22001
-0.23009
-0.21084
-0.20694
-0.21091
-0.22272
-0.21020
-0.18519
-0.17999
-0.14762
-0.03875
0.10267
0.26339
0.53461
0.87253
1.19600
1.46710
1.56973
1.47584
1.13809
0.63927
0.09184
-0.37168
-0.47816
-0.36965
-0.28891
-0.26922
-0.24945
-0.26983
-0.30260
-0.28948
-0.27066
-0.27083
-0.29548
-0.31805
-0.30708
-0.29310
-0.30690
-0.31200
-0.31305
-0.29229
-0.29439
-0.30770
-0.30041
-0.29842
-0.29956
-0.30510
-0.30465
-0.28002
-0.30825
-0.32253
-0.31466
-0.30617
-0.30376
-0.30687
-0.30161
-0.27847
-0.25914
-0.27320
-0.27298
-0.24830
-0.23044
-0.22804
-0.24272
-0.20670
-0.17966
-0.17980
-0.17684
-0.17582
-0.13083
-0.12510
-0.14296
-0.13344
-0.09028
-0.08494
-0.10217
-0.08110
-0.06298
-0.06040
-0.06071
-0.05952
-0.02459
-0.00899
-0.02950
-0.04464
-0.01418
-0.00315
-0.01934
-0.04306
-0.04762
-0.04235
-0.07106
-0.09601
-0.09976
-0.09169
-0.13170
-0.14850
-0.16940
-0.16898
-0.18631
-0.21514
-0.22600
-0.21999
-0.22123
-0.24511
-0.24430
-0.21876
-0.20312
-0.22909
-0.24564
-0.22334
-0.20596
-0.22327
-0.22236
-0.18658
-0.17369
-0.19176
-0.20176
-0.19540
-0.18311
-0.18492
-0.19938
-0.19790
-0.16994
-0.17454
-0.18906
-0.20109
-0.18077
-0.17052
-0.17738
-0.18518
-0.17288
-0.16303
-0.17340
-0.18402
-0.17317
-0.17001
-0.18997
-0.19700
-0.18210
-0.17291
-0.20519
-0.21310
-0.18993
-0.16471
-0.19051
-0.20965
-0.20634
-0.18655
-0.19710
-0.21567
-0.20996
-0.20257
-0.18745
-0.22399
-0.22854
-0.20813
-0.20912
-0.22417
-0.23212
-0.23600
-0.23130
-0.22830
-0.24596
-0.23086
-0.21726
-0.22943
-0.24786
-0.23394
-0.19758
-0.20798
-0.21235
-0.19289
-0.18180
-0.18776
-0.21054
-0.21576
-0.21536
-0.21312
-0.22990
-0.23513
-0.21655
-0.19571
-0.20681
-0.21027
-0.19811
-0.19165
-0.21048
-0.22734
-0.21420
-0.21021
-0.21366
-0.22610
-0.22306
-0.19789
-0.19840
-0.20557
-0.16168
-0.04732
0.08654
0.26098
0.54373
0.87706
1.16284
1.38809
1.49812
1.41731
1.04780
0.55799
0.05524
-0.32343
-0.42900
-0.32968
-0.24342
-0.20454
-0.22620
-0.25056
-0.26328
-0.27723
-0.27790
-0.29650
-0.31672
-0.32047
-0.28850
-0.28803
-0.31443
-0.32091
-0.31544
-0.32414
-0.33884
-0.34106
-0.31034
-0.30048
-0.33960
-0.34140
-0.31943
-0.30327
-0.31170
-0.32990
-0.32638
-0.30811
-0.31573
-0.32599
-0.32524
-0.29427
-0.29640
-0.31051
-0.29213
-0.26039
-0.25996
-0.29112
-0.26780
-0.22321
-0.20628
-0.22383
-0.20966
-0.16005
-0.13815
-0.15205
-0.15338
-0.13535
-0.11726
-0.11320
-0.12219
-0.09720
-0.08252
-0.11073
-0.11395
-0.09463
-0.07098
-0.05644
-0.06346
-0.06632
-0.05434
-0.05374
-0.05972
-0.06476
-0.04276
-0.06046
-0.11927
-0.13054
-0.11485
-0.12586
-0.15983
-0.17550
-0.16155
-0.17242
-0.20160
-0.21853
-0.22977
-0.22887
-0.23767
-0.26829
-0.26410
-0.24230
-0.24987
-0.27862
-0.27665
-0.26979
-0.26884
-0.30398
-0.28956
-0.25389
-0.25109
-0.26907
-0.28548
-0.26663
-0.25066
-0.26025
-0.26388
-0.25096
-0.24831
-0.26310
-0.26309
-0.25322
-0.22525
-0.25319
-0.24991
-0.22748
-0.20506
-0.21393
-0.25123
-0.24140
-0.20859
-0.20363
-0.24467
-0.27079
-0.24035
-0.26624
-0.27931
-0.26087
-0.22967
-0.23756
-0.26354
-0.26766
-0.24655
-0.21747
-0.22749
-0.25336
-0.24530
-0.24296
-0.26916
-0.27279
-0.28301
-0.26561
-0.28166
-0.30911
-0.29230
-0.26266
-0.28284
-0.29826
-0.29387
-0.26014
-0.27776
-0.29029
-0.28301
-0.26097
-0.26854
-0.27663
-0.26955
-0.26122
-0.26960
-0.29884
-0.28401
-0.26943
-0.26413
-0.27448
-0.30159
-0.28816
-0.25673
-0.27724
-0.28546
-0.26748
-0.25317
-0.25367
-0.26733
-0.27678
-0.26487
-0.27353
-0.29078
-0.29466
-0.27669
-0.27006
-0.27372
-0.28464
-0.26142
-0.26459
-0.25744
-0.25949
-0.24245
-0.23770
-0.26890
-0.27841
-0.26831
-0.24422
-0.26521
-0.28428
-0.27972
-0.25934
-0.26807
-0.28094
-0.28898
-0.27996
-0.27228
-0.28520
-0.27585
-0.24921
-0.25361
-0.27167
-0.28645
-0.27338
-0.26793
-0.27394
-0.26780
-0.25228
-0.25033
-0.25380
-0.24779
-0.24416
-0.22468
-0.23893
-0.25295
-0.25253
-0.22888
-0.24472
-0.24112
-0.24887
-0.22347
-0.24507
-0.25540
-0.25314
-0.25027
-0.24264
-0.26151
-0.26059
-0.24521
-0.24127
-0.26152
-0.27606
-0.25149
-0.24105
-0.25847
-0.26115
-0.26130
-0.22840
-0.23202
-0.24571
-0.25106
-0.23751
-0.25962
-0.27295
-0.26453
-0.23742
-0.22563
-0.24715
-0.25795
-0.22312
-0.22275
-0.24402
-0.24736
-0.22894
-0.20473
-0.22867
-0.23598
-0.22790
-0.22358
-0.23704
-0.25143
-0.23232
-0.21662
-0.24441
-0.25702
-0.23735
-0.21179
-0.22448
-0.24563
-0.23408
-0.20926
-0.21319
-0.22464
-0.22957
-0.21663
-0.21654
-0.22322
-0.22183
-0.19871
-0.20884
-0.22067
-0.22357
-0.21357
-0.19104
-0.19360
-0.19998
-0.17862
-0.14971
-0.12530
-0.05343
0.08761
0.28999
0.54526
0.78493
1.03458
1.31306
1.51926
1.51044
1.25830
0.88314
0.46357
0.01694
-0.30665
-0.34374
-0.25258
-0.21595
-0.25114
-0.23439
-0.22614
-0.25548
-0.26976
-0.26187
-0.25750
-0.28291
-0.30609
-0.29587
-0.27343
-0.29648
-0.33356
-0.33572
-0.30489
-0.30326
-0.31478
-0.32852
-0.31547
-0.30494
-0.32838
-0.33181
-0.31052
-0.30199
-0.30224
-0.30345
-0.29462
-0.27309
-0.28786
-0.30504
-0.28362
-0.27018
-0.27966
-0.29695
-0.27278
-0.24746
-0.24925
-0.25154
-0.22856
-0.20038
-0.19920
-0.20909
-0.20567
-0.16891
-0.15436
-0.15705
-0.16078
-0.12995
-0.10483
-0.12348
-0.12506
-0.10353
-0.07484
-0.07244
-0.08606
-0.06098
-0.03790
-0.03820
-0.04827
-0.03190
-0.00065
-0.00642
-0.02136
-0.02852
0.00016
0.00129
-0.02364
-0.02980
-0.02720
-0.04072
-0.06681
-0.09043
-0.08019
-0.08129
-0.11265
-0.13524
-0.13623
-0.13966
-0.16882
-0.19361
-0.18888
-0.18026
-0.20326
-0.23323
-0.23780
-0.22291
-0.24181
-0.26629
-0.26063
-0.25142
-0.24896
-0.27144
-0.28523
-0.25738
-0.25288
-0.27238
-0.26203
-0.23215
-0.23254
-0.25393
-0.25207
-0.22947
-0.22358
-0.24241
-0.24926
-0.24608
-0.22476
-0.22147
-0.24080
-0.21153
-0.19036
-0.20303
-0.21605
-0.21556
-0.19178
-0.17288
-0.20498
-0.20916
-0.20223
-0.20690
-0.21803
-0.22607
-0.21622
-0.23157
-0.24291
-0.26102
-0.23412
-0.22044
-0.23447
-0.24412
-0.24452
-0.21571
-0.25183
-0.25999
-0.23802
-0.23144
-0.23396
-0.24749
-0.25041
-0.23876
-0.22899
-0.26213
-0.25999
-0.23550
-0.24643
-0.25745
-0.26308
-0.24826
-0.22812
-0.25173
-0.25793
-0.24216
-0.23334
-0.26989
-0.26596
-0.24719
-0.22872
-0.25321
-0.28258
-0.27424
-0.27047
-0.26429
-0.27209
-0.26450
-0.23717
-0.22150
-0.23746
-0.22895
-0.18772
-0.10713
-0.02777
0.08609
0.30072
0.57870
0.85884
1.16256
1.43042
1.52475
1.35193
0.94285
0.48367
-0.03102
-0.44834
-0.50316
-0.39700
-0.29804
-0.26362
-0.28642
-0.28420
-0.27742
-0.29506
-0.32449
-0.32971
-0.31537
-0.32440
-0.34800
-0.34654
-0.33105
-0.31940
-0.35010
-0.35851
-0.35183
-0.34873
-0.35244
-0.35545
-0.32263
-0.30844
-0.31797
-0.35423
-0.33493
-0.31771
-0.31863
-0.33279
-0.33121
-0.31264
-0.31713
-0.34619
-0.32297
-0.29920
-0.30409
-0.31804
-0.32307
-0.28693
-0.26620
-0.28994
-0.28659
-0.25994
-0.24367
-0.24189
-0.26508
-0.22962
-0.20911
-0.21308
-0.23006
-0.19995
-0.16518
-0.17940
-0.18137
-0.16350
-0.13818
-0.11594
-0.12095
-0.09593
-0.07394
-0.05758
-0.06727
-0.07309
-0.05988
-0.05777
-0.06712
-0.07939
-0.06588
-0.06872
-0.09995
-0.12304
-0.10840
-0.09351
-0.13049
-0.16756
-0.17880
-0.16815
-0.20631
-0.22750
-0.23857
-0.23380
-0.26679
-0.29052
-0.28116
-0.28584
-0.28831
-0.30213
-0.31483
-0.29575
-0.29502
-0.32144
-0.32966
-0.30798
-0.31067
-0.32434
-0.31521
-0.30403
-0.28254
-0.29286
-0.29757
-0.27940
-0.27259
-0.28710
-0.29938
-0.28554
-0.25467
-0.25074
-0.27301
-0.27836
-0.25149
-0.23193
-0.25224
-0.26117
-0.24704
-0.24382
-0.26830
-0.26009
-0.25794
-0.25106
-0.27836
-0.28665
-0.27347
-0.26392
-0.26569
-0.26920
-0.27055
-0.26552
-0.27591
-0.30537
-0.27705
-0.24632
-0.26890
-0.28201
-0.29142
-0.29126
-0.28449
-0.29879
-0.31531
-0.28350
-0.27469
-0.30016
-0.30446
-0.27624
-0.25626
-0.28853
-0.28621
-0.27774
-0.26202
-0.28188
-0.30134
-0.28204
-0.25756
-0.26793
-0.29711
-0.28341
-0.27054
-0.28802
-0.30802
-0.30508
-0.29658
-0.30640
-0.31549
-0.31747
-0.30357
-0.28311
-0.29671
-0.30649
-0.28269
-0.25844
-0.26388
-0.26911
-0.24351
-0.20754
-0.14545
-0.05661
0.11032
0.33797
0.60157
0.86700
1.10637
1.34616
1.43578
1.29886
0.95930
0.56261
0.09188
-0.35056
-0.52051
-0.46092
-0.34759
-0.31115
-0.33658
-0.33134
-0.32288
-0.35504
-0.36954
-0.37541
-0.36555
-0.37694
-0.41043
-0.39743
-0.37450
-0.36955
-0.38338
-0.37169
-0.36042
-0.37101
-0.38067
-0.38347
-0.36812
-0.37226
-0.40999
-0.39112
-0.35950
-0.36224
-0.38139
-0.38872
-0.36708
-0.36829
-0.36293
-0.35494
-0.35563
-0.35813
-0.35948
-0.36117
-0.35241
-0.32531
-0.32909
-0.35354
-0.33935
-0.30777
-0.31288
-0.31835
-0.31120
-0.27282
-0.24626
-0.26258
-0.25559
-0.21906
-0.18937
-0.18947
-0.18517
-0.16800
-0.15740
-0.16091
-0.16311
-0.13685
-0.10456
-0.10510
-0.10937
-0.10051
-0.09183
-0.10907
-0.13198
-0.11231
-0.09365
-0.13275
-0.17192
-0.18032
-0.15445
-0.19430
-0.23409
-0.24237
-0.22861
-0.25567
-0.29291
-0.30795
-0.29137
-0.28714
-0.33215
-0.33954
-0.32918
-0.31659
-0.32367
-0.33991
-0.33717
-0.33517
-0.34090
-0.33824
-0.31759
-0.31253
-0.32273
-0.33290
-0.33886
-0.29851
-0.29684
-0.32195
-0.32936
-0.31062
-0.30595
-0.33022
-0.31382
-0.27756
-0.27858
-0.30098
-0.29025
-0.27752
-0.26853
-0.29241
-0.30250
-0.30360
-0.27611
-0.28014
-0.28516
-0.30819
-0.30603
-0.30426
-0.31950
-0.28256
-0.27343
-0.29794
-0.31073
-0.31379
-0.28589
-0.27385
-0.30373
-0.31288
-0.30672
-0.29541
-0.31180
-0.32835
-0.31127
-0.29787
-0.30398
-0.30601
-0.30909
-0.30373
-0.29765
-0.31280
-0.30685
-0.29803
-0.31000
-0.33838
-0.33464
-0.31619
-0.32338
-0.34265
-0.35369
-0.32737
-0.32320
-0.33115
-0.34866
-0.33607
-0.31842
-0.35164
-0.36243
-0.33288
-0.30967
-0.33711
-0.35676
-0.33263
-0.32015
-0.31793
-0.33465
-0.32041
-0.31456
-0.31441
-0.32340
-0.34557
-0.30939
-0.30694
-0.31719
-0.32110
-0.30136
-0.29552
-0.30310
-0.32183
-0.32673
-0.31889
-0.32983
-0.33007
-0.32182
-0.30765
-0.31251
-0.31790
-0.31239
-0.29056
-0.30651
-0.30258
-0.29700
-0.28101
-0.29976
-0.30547
-0.27939
-0.25939
-0.26275
-0.28679
-0.27605
-0.25645
-0.24706
-0.26695
-0.27631
-0.21179
-0.12696
-0.06818
0.03515
0.24542
0.47273
0.70071
0.95087
1.23053
1.44105
1.44351
1.15594
0.69399
0.25191
-0.19372
-0.47050
-0.47876
-0.34161
-0.26908
-0.30758
-0.31599
-0.30707
-0.33378
-0.35269
-0.37835
-0.34048
-0.31713
-0.32552
-0.34072
-0.34952
-0.32718
-0.32947
-0.36556
-0.36881
-0.34971
-0.35544
-0.36258
-0.36801
-0.37576
-0.36266
-0.37751
-0.36617
-0.33633
-0.33387
-0.36565
-0.36707
-0.33896
-0.33208
-0.34067
-0.35500
-0.34009
-0.32892
-0.35714
-0.37304
-0.33514
-0.31677
-0.32351
-0.32994
-0.31676
-0.28368
-0.29290
-0.28999
-0.25275
-0.24143
-0.23279
-0.24590
-0.23661
-0.18647
-0.16091
-0.20248
-0.21479
-0.16296
-0.13085
-0.15241
-0.16626
-0.13675
-0.09753
-0.11703
-0.14324
-0.09972
-0.06626
-0.09639
-0.09296
-0.08250
-0.07324
-0.09446
-0.11978
-0.10814
-0.10261
-0.12007
-0.15142
-0.15896
-0.16630
-0.17248
-0.19620
-0.21807
-0.20837
-0.21640
-0.23493
-0.26022
-0.26029
-0.26415
-0.27897
-0.26229
-0.26044
-0.25113
-0.26471
-0.27423
-0.26798
-0.25352
-0.26699
-0.27222
-0.24997
-0.23817
-0.24006
-0.26161
-0.25013
-0.23399
-0.23938
-0.25785
-0.26791
-0.25773
-0.25113
-0.26726
-0.27095
-0.24856
-0.23832
-0.25069
-0.25421
-0.22189
-0.21782
-0.24270
-0.25692
-0.26108
-0.24491
-0.24727
-0.26898
-0.25316
-0.23024
-0.24423
-0.25677
-0.23409
-0.21245
-0.22643
-0.24033
-0.25258
-0.25056
-0.25210
-0.25973
-0.26912
-0.25238
-0.25045
-0.27645
-0.28142
-0.26369
-0.24716
-0.27780
-0.29448
-0.27682
-0.27022
-0.26885
-0.28402
-0.25676
-0.23301
-0.25624
-0.28750
-0.26316
-0.23339
-0.25384
-0.27620
-0.27078
-0.27578
-0.27332
-0.28020
-0.28769
-0.26378
-0.25085
-0.25714
-0.27070
-0.25862
-0.24475
-0.24049
-0.25118
-0.24140
-0.22312
-0.22671
-0.23376
-0.22242
-0.19252
-0.16016
-0.10989
0.00112
0.15090
0.33622
0.58390
0.87839
1.17565
1.42035
1.50487
1.37499
1.03184
0.57271
0.06142
-0.37949
-0.49992
-0.41585
-0.35169
-0.31736
-0.27966
-0.27581
-0.29233
-0.31994
-0.31821
-0.31393
-0.31401
-0.34301
-0.34833
-0.32009
-0.32415
-0.32886
-0.33687
-0.31958
-0.32161
-0.33561
-0.33458
-0.30937
-0.30382
-0.33025
-0.32086
-0.31505
-0.31163
-0.32554
-0.33676
-0.31421
-0.31041
-0.33545
-0.34043
-0.32614
-0.31551
-0.33328
-0.35273
-0.35482
-0.33376
-0.33014
-0.34224
-0.33233
-0.29574
-0.30254
-0.30518
-0.30354
-0.27318
-0.25320
-0.25524
-0.23982
-0.21005
-0.19193
-0.19290
-0.19483
-0.16113
-0.14022
-0.14523
-0.14849
-0.12909
-0.11616
-0.12227
-0.12615
-0.11511
-0.09423
-0.10863
-0.11788
-0.11313
-0.08856
-0.09806
-0.11868
-0.12584
-0.09805
-0.10762
-0.14158
-0.15914
-0.15242
-0.15709
-0.19274
-0.22839
-0.22969
-0.22127
-0.24196
-0.26115
-0.25884
-0.25497
-0.27530
-0.28941
-0.29219
-0.27574
-0.27728
-0.30823
-0.30884
-0.28227
-0.28882
-0.31029
-0.30641
-0.28117
-0.27744
-0.28103
-0.27738
-0.27759
-0.25921
-0.27236
-0.28681
-0.25879
-0.24954
-0.27364
-0.28131
-0.27651
-0.26760
-0.26938
-0.27210
-0.25704
-0.25780
-0.26227
-0.28270
-0.26944
-0.25736
-0.25701
-0.27968
-0.27580
-0.26154
-0.25285
-0.27930
-0.29332
-0.26195
-0.25992
-0.26294
-0.28065
-0.28592
-0.26060
-0.27407
-0.28807
-0.26559
-0.25926
-0.26762
-0.29425
-0.29478
-0.27187
-0.27637
-0.30052
-0.29918
-0.27602
-0.26975
-0.27890
-0.28806
-0.27281
-0.26306
-0.29994
-0.31428
-0.28906
-0.29977
-0.31774
-0.31938
-0.29877
-0.27450
-0.29789
-0.31523
-0.30303
-0.29323
-0.30420
-0.30489
-0.30060
-0.27745
-0.27524
-0.28882
-0.27224
-0.26280
-0.25247
-0.26510
-0.23629
-0.18270
-0.11494
-0.01978
0.14595
0.38446
0.66880
0.94677
1.18087
1.32463
1.23600
0.89525
0.43340
-0.00580
-0.33052
-0.45419
-0.39269
-0.29636
-0.26779
-0.30438
-0.33596
-0.34024
-0.32890
-0.32928
-0.36108
-0.35711
-0.33550
-0.34521
-0.38795
-0.38010
-0.35643
-0.34663
-0.36851
-0.38302
-0.36622
-0.35032
-0.35778
-0.37350
-0.36785
-0.35310
-0.37403
-0.37884
-0.35874
-0.34227
-0.34657
-0.36682
-0.37369
-0.33870
-0.33001
-0.33756
-0.33844
-0.30384
-0.28431
-0.31445
-0.31188
-0.29210
-0.27601
-0.29449
-0.28964
-0.26258
-0.25103
-0.25134
-0.27199
-0.23762
-0.21295
-0.20875
-0.21395
-0.20775
-0.18191
-0.17527
-0.19601
-0.18037
-0.13954
-0.15625
-0.16914
-0.15676
-0.12825
-0.10184
-0.11800
-0.13663
-0.13007
-0.11153
-0.13959
-0.13889
-0.13318
-0.14891
-0.18822
-0.20838
-0.20658
-0.20477
-0.23257
-0.26302
-0.26966
-0.26287
-0.27049
-0.29500
-0.30562
-0.28675
-0.28311
-0.31410
-0.31813
-0.29079
-0.28481
-0.29496
-0.31877
-0.30704
-0.27817
-0.28710
-0.28652
-0.26075
-0.25153
-0.25003
-0.24782
-0.19303
-0.14526
-0.13502
-0.12570
-0.08412
-0.01404
0.04116
0.10482
0.19781
0.30165
0.40682
0.51051
0.63213
0.76746
0.89101
0.96980
1.03398
1.06501
1.03759
0.98004
0.91696
0.84686
0.72862
0.57835
0.41818
0.24983
0.13041
0.03794
-0.01281
-0.01831
-0.00093
-0.02081
-0.00532
0.10540
0.26091
0.31952
0.18110
-0.08604
-0.32456
-0.45217
-0.51936
-0.55055
-0.55335
-0.58355
-0.61696
-0.64105
-0.62626
-0.62281
-0.64952
-0.67703
-0.66851
-0.66165
-0.68699
-0.71170
-0.70397
-0.68657
-0.71031
-0.72573
-0.72487
-0.71179
-0.71999
-0.74396
-0.76983
-0.74742
-0.75506
-0.80738
-0.81165
-0.79172
-0.77827
-0.79402
-0.80771
-0.80124
-0.78927
-0.80067
-0.82000
-0.79848
-0.78101
-0.79451
-0.81054
-0.77726
-0.74103
-0.74909
-0.74784
-0.71237
-0.68139
-0.66244
-0.63695
-0.61627
-0.56525
-0.53151
-0.53792
-0.51543
-0.46442
-0.43824
-0.43114
-0.43408
-0.41051
-0.39238
-0.39046
-0.39877
-0.38075
-0.37905
-0.36596
-0.37692
-0.37871
-0.35739
-0.36423
-0.38778
-0.38665
-0.35089
-0.34640
-0.38907
-0.37873
-0.36098
-0.37025
-0.37981
-0.38833
-0.37412
-0.36628
-0.35814
-0.35411
-0.34390
-0.34090
-0.35775
-0.34384
-0.31059
-0.30165
-0.33130
-0.34483
-0.31499
-0.28179
-0.30028
-0.31695
-0.31141
-0.28792
-0.30083
-0.33764
-0.34323
-0.31755
-0.32021
-0.32703
-0.34165
-0.33081
-0.31733
-0.32990
-0.33803
-0.31903
-0.30012
-0.34223
-0.36194
-0.34630
-0.33100
-0.33527
-0.35241
-0.33109
-0.32363
-0.31139
-0.34587
-0.33553
-0.32144
-0.33196
-0.32384
-0.31374
-0.29265
-0.28337
-0.29958
-0.30564
-0.28789
-0.27673
-0.28686
-0.30814
-0.29716
-0.30596
-0.32129
-0.32254
-0.30430
-0.28441
-0.30762
-0.33129
-0.30526
-0.30602
-0.32016
-0.33247
-0.31867
-0.29814
-0.31210
-0.32183
-0.33215
-0.31427
-0.30479
-0.31254
-0.31423
-0.31774
-0.30711
-0.31009
-0.31043
-0.29149
-0.27243
-0.30696
-0.31662
-0.27684
-0.27288
-0.28262
-0.29440
-0.27970
-0.26588
-0.26986
-0.28388
-0.27084
-0.26025
-0.27595
-0.30134
-0.29332
-0.28158
-0.27432
-0.28441
-0.29496
-0.28127
-0.27496
-0.27825
-0.27992
-0.24928
-0.23913
-0.23815
-0.20742
-0.14046
-0.04472
0.07525
0.27585
0.55155
0.84135
1.10023
1.27740
1.35605
1.18470
0.74005
0.23677
-0.20629
-0.42656
-0.39340
-0.32198
-0.28509
-0.26263
-0.28772
-0.32741
-0.32462
-0.31977
-0.32153
-0.35251
-0.37137
-0.35354
-0.34053
-0.35268
-0.37408
-0.36148
-0.33228
-0.33368
-0.34031
-0.35774
-0.34742
-0.34920
-0.35792
-0.37437
-0.35842
-0.34231
-0.36834
-0.35654
-0.33575
-0.34467
-0.32395
-0.31603
-0.30375
-0.30219
-0.31313
-0.31337
-0.29364
-0.27669
-0.28265
-0.30348
-0.28072
-0.26539
-0.26685
-0.27393
-0.25789
-0.24148
-0.24425
-0.24815
-0.24563
-0.22445
-0.20973
-0.21861
-0.20333
-0.16720
-0.17784
-0.18882
-0.18627
-0.17951
-0.15750
-0.16151
-0.17284
-0.13266
-0.09500
-0.10344
-0.11269
-0.08542
-0.07153
-0.08120
-0.08532
-0.08331
-0.06911
-0.07116
-0.10419
-0.10050
-0.10196
-0.11205
-0.13625
-0.16833
-0.15732
-0.16564
-0.18530
-0.20490
-0.20811
-0.19812
-0.23002
-0.25404
-0.24457
-0.23319
-0.25498
-0.27901
-0.25828
-0.23276
-0.24056
-0.24452
-0.22853
-0.20367
-0.22188
-0.21966
-0.21147
-0.19699
-0.20382
-0.21732
-0.21378
-0.19954
-0.19024
-0.20824
-0.21726
-0.21115
-0.20271
-0.21371
-0.22360
-0.21774
-0.21057
-0.22827
-0.23537
-0.23733
-0.22808
-0.25982
-0.25981
-0.25884
-0.23930
-0.24630
-0.27407
-0.27186
-0.24674
-0.26012
-0.27808
-0.27049
-0.24639
-0.24282
-0.26759
-0.26213
-0.24637
-0.25163
-0.26540
-0.26889
-0.24209
-0.24011
-0.25645
-0.25965
-0.23945
-0.23535
-0.25056
-0.27160
-0.26014
-0.24535
-0.24953
-0.28124
-0.27459
-0.26915
-0.26020
-0.28901
-0.28043
-0.27756
-0.28761
-0.29208
-0.27929
-0.26066
-0.25033
-0.25775
-0.26155
-0.24722
-0.21347
-0.21557
-0.20783
-0.14770
-0.04451
0.03709
0.19573
0.39257
0.63358
0.85466
0.99068
1.04054
0.91016
0.58586
0.20022
-0.12917
-0.29342
-0.32484
-0.31880
-0.28768
-0.28416
-0.28233
-0.31111
-0.34076
-0.32741
-0.33035
-0.36617
-0.38854
-0.37580
-0.35484
-0.37458
-0.39616
-0.37901
-0.36697
-0.36852
-0.39047
-0.38234
-0.35656
-0.35004
-0.36698
-0.36699
-0.32606
-0.33790
-0.33636
-0.34330
-0.31570
-0.30621
-0.32693
-0.32406
-0.30236
-0.29110
-0.31326
-0.31141
-0.28262
-0.28049
-0.30149
-0.32032
-0.30130
-0.28391
-0.28926
-0.29816
-0.28072
-0.25221
-0.26609
-0.26986
-0.26270
-0.24356
-0.24952
-0.25587
-0.24122
-0.21904
-0.20604
-0.21060
-0.20575
-0.18098
-0.15759
-0.17621
-0.17734
-0.14694
-0.13120
-0.14000
-0.17945
-0.16509
-0.16786
-0.18038
-0.20427
-0.19301
-0.18672
-0.20642
-0.23166
-0.25155
-0.23245
-0.24721
-0.26269
-0.27482
-0.27499
-0.27571
-0.29203
-0.30548
-0.27680
-0.27963
-0.29009
-0.31314
-0.28616
-0.27702
-0.28089
-0.28098
-0.27483
-0.25818
-0.27686
-0.27667
-0.27876
-0.26049
-0.22903
-0.24140
-0.25834
-0.23631
-0.23973
-0.26742
-0.25824
-0.23949
-0.25194
-0.27224
-0.26742
-0.26181
-0.24903
-0.26136
-0.27211
-0.26279
-0.25179
-0.26215
-0.27941
-0.25880
-0.25287
-0.26292
-0.26638
-0.25774
-0.22200
-0.23393
-0.24490
-0.24916
-0.21519
-0.21955
-0.24128
-0.24236
-0.22864
-0.22261
-0.25372
-0.25739
-0.23135
-0.24111
-0.26765
-0.27959
-0.25137
-0.25516
-0.27151
-0.28681
-0.28898
-0.25866
-0.25935
-0.27384
-0.27829
-0.26428
-0.28213
-0.30757
-0.30898
-0.27877
-0.27804
-0.28277
-0.27868
-0.25775
-0.25434
-0.27452
-0.28077
-0.26848
-0.25228
-0.25428
-0.27872
-0.25206
-0.23888
-0.24206
-0.26475
-0.24588
-0.21748
-0.21755
-0.24416
-0.25326
-0.21671
-0.23278
-0.25041
-0.25964
-0.24555
-0.24478
-0.27016
-0.25964
-0.23456
-0.23355
-0.24714
-0.25819
-0.24649
-0.24159
-0.25517
-0.24983
-0.21094
-0.20321
-0.21231
-0.21133
-0.15621
-0.08512
0.00587
0.14533
0.33008
0.59780
0.83056
1.07232
1.28248
1.37685
1.20475
0.83162
0.38968
0.00752
-0.26008
-0.32557
-0.25402
-0.20928
-0.22013
-0.26639
-0.29164
-0.27120
-0.27025
-0.28927
-0.31325
-0.31692
-0.30204
-0.30293
-0.30208
-0.30497
-0.28525
-0.29892
-0.32618
-0.31644
-0.30621
-0.33169
-0.33303
-0.32586
-0.31173
-0.32037
-0.32934
-0.34896
-0.31786
-0.31004
-0.32986
-0.32539
-0.30517
-0.29982
-0.30727
-0.33211
-0.32132
-0.29714
-0.30725
-0.31749
-0.29803
-0.27435
-0.26876
-0.27706
-0.27551
-0.23180
-0.22048
-0.21950
-0.22392
-0.19397
-0.19580
-0.20379
-0.19736
-0.15544
-0.13146
-0.14326
-0.13738
-0.11790
-0.11235
-0.11455
-0.11983
-0.12170
-0.11345
-0.10964
-0.10115
-0.09960
-0.06650
-0.07844
-0.08772
-0.08114
-0.05816
-0.06406
-0.09526
-0.10074
-0.08593
-0.07918
-0.10913
-0.13788
-0.13361
-0.14638
-0.16824
-0.18714
-0.17244
-0.17856
-0.21351
-0.22560
-0.20812
-0.21077
-0.22188
-0.24839
-0.23792
-0.21694
-0.22727
-0.24014
-0.22503
-0.20696
-0.19289
-0.17099
-0.13982
-0.09058
-0.05340
-0.04146
0.01052
0.10476
0.22311
0.30142
0.39039
0.51433
0.63918
0.72371
0.83907
0.98999
1.15961
1.20399
1.17110
1.14381
1.11519
1.04967
0.93471
0.80110
0.64908
0.47062
0.26109
0.09917
0.03488
0.00320
-0.03044
-0.06023
-0.03341
0.09066
0.20215
0.20366
0.08835
-0.15465
-0.39273
-0.49074
-0.49247
-0.49737
-0.52083
-0.56181
-0.58168
-0.58642
-0.60693
-0.63999
-0.64990
-0.64153
-0.65956
-0.68411
-0.69007
-0.67274
-0.67519
-0.70685
-0.70885
-0.71642
-0.71747
-0.72079
-0.73805
-0.73080
-0.73168
-0.74891
-0.75745
-0.76029
-0.74429
-0.77708
-0.78603
-0.76610
-0.74873
-0.75852
-0.77667
-0.75859
-0.74036
-0.73162
-0.71715
-0.70167
-0.67833
-0.66782
-0.67168
-0.65757
-0.62350
-0.59685
-0.58333
-0.56709
-0.52354
-0.48594
-0.49516
-0.47762
-0.45048
-0.42460
-0.41369
-0.41758
-0.38053
-0.34914
-0.35520
-0.36812
-0.36325
-0.33734
-0.34038
-0.36063
-0.35904
-0.34732
-0.33666
-0.34824
-0.35287
-0.34443
-0.33173
-0.34243
-0.35303
-0.32723
-0.31728
-0.31499
-0.31808
-0.29810
-0.29731
-0.30990
-0.31475
-0.31256
-0.28349
-0.28607
-0.31705
-0.30319
-0.28183
-0.28862
-0.30613
-0.31506
-0.30186
-0.30756
-0.33341
-0.33946
-0.30203
-0.27880
-0.30632
-0.33422
-0.33702
-0.31687
-0.31550
-0.34186
-0.31388
-0.29984
-0.31974
-0.33784
-0.31972
-0.30336
-0.30877
-0.32096
-0.31660
-0.30397
-0.30851
-0.32636
-0.32949
-0.30018
-0.30768
-0.33048
-0.33834
-0.30995
-0.30801
-0.32351
-0.33897
-0.32143
-0.30764
-0.34108
-0.35105
-0.33422
-0.30030
-0.32459
-0.34871
-0.34282
-0.32286
-0.32320
-0.34941
-0.32817
-0.31203
-0.32232
-0.35241
-0.33952
-0.32345
-0.31975
-0.34782
-0.36531
-0.33966
-0.32988
-0.33429
-0.33426
-0.31808
-0.31647
-0.33206
-0.34439
-0.33501
-0.30549
-0.29775
-0.31462
-0.30142
-0.28333
-0.30312
-0.33482
-0.31935
-0.30284
-0.31947
-0.33118
-0.33505
-0.31584
-0.30811
-0.33946
-0.32545
-0.30313
-0.29304
-0.29961
-0.29553
-0.30291
-0.28972
-0.29839
-0.29328
-0.25759
-0.21176
-0.15324
-0.07059
0.10009
0.32472
0.57114
0.78346
1.00594
1.14170
1.12682
0.90135
0.52773
0.13988
-0.22846
-0.49764
-0.49529
-0.38193
-0.33900
-0.32152
-0.35943
-0.34368
-0.32729
-0.35808
-0.37880
-0.37716
-0.37009
-0.37140
-0.39554
-0.39220
-0.39342
-0.42074
-0.43914
-0.42648
-0.40823
-0.41640
-0.44036
-0.44772
-0.42368
-0.42836
-0.45092
-0.45454
-0.43324
-0.39603
-0.43163
-0.43726
-0.42773
-0.40090
-0.41578
-0.41912
-0.40207
-0.39453
-0.40349
-0.42379
-0.39693
-0.37406
-0.39348
-0.39572
-0.37767
-0.35233
-0.34065
-0.35987
-0.33412
-0.30643
-0.30209
-0.31281
-0.31414
-0.29074
-0.28404
-0.30800
-0.29831
-0.26316
-0.25562
-0.27979
-0.28746
-0.26900
-0.23233
-0.25083
-0.26933
-0.22966
-0.20835
-0.21757
-0.22345
-0.20597
-0.19176
-0.18400
-0.18844
-0.16615
-0.15410
-0.14037
-0.15867
-0.15742
-0.14212
-0.13947
-0.16557
-0.17745
-0.16271
-0.15582
-0.18679
-0.20452
-0.19103
-0.18522
-0.20096
-0.21736
-0.22942
-0.21941
-0.22201
-0.27101
-0.27258
-0.25876
-0.26493
-0.27976
-0.27787
-0.25679
-0.27419
-0.29433
-0.29562
-0.24177
-0.25103
-0.27648
-0.28835
-0.27517
-0.25499
-0.28010
-0.28893
-0.25342
-0.23554
-0.25447
-0.27518
-0.26382
-0.23131
-0.22960
-0.25322
-0.24594
-0.23548
-0.22313
-0.24021
-0.21653
-0.19927
-0.22726
-0.25489
-0.25169
-0.23166
-0.23386
-0.27419
-0.28620
-0.27482
-0.25739
-0.26900
-0.26997
-0.25400
-0.26877
-0.28480
-0.29884
-0.29112
-0.27452
-0.27724
-0.28219
-0.28814
-0.27870
-0.28965
-0.31673
-0.30426
-0.27504
-0.28589
-0.28460
-0.26462
-0.24999
-0.24043
-0.22077
-0.16592
-0.06653
0.04889
0.20966
0.44136
0.76346
1.06141
1.26899
1.33154
1.19965
0.82975
0.36178
-0.12176
-0.48499
-0.55442
-0.44690
-0.38699
-0.33170
-0.28840
-0.30582
-0.34722
-0.35660
-0.33370
-0.33516
-0.36130
-0.37865
-0.36637
-0.35862
-0.36292
-0.37895
-0.37307
-0.34925
-0.36105
-0.37604
-0.35272
-0.32655
-0.34937
-0.36430
-0.33852
-0.32344
-0.31420
-0.33339
-0.35866
-0.35827
-0.33317
-0.33624
-0.36139
-0.34788
-0.35116
-0.38548
-0.37147
-0.33822
-0.32782
-0.33732
-0.35428
-0.34217
-0.33147
-0.33207
-0.33582
-0.31927
-0.26855
-0.27842
-0.28667
-0.28640
-0.25277
-0.24491
-0.26882
-0.26486
-0.23642
-0.20433
-0.22797
-0.24843
-0.23456
-0.23006
-0.24010
-0.23716
-0.20526
-0.18350
-0.20561
-0.21413
-0.18681
-0.17286
-0.17976
-0.19654
-0.18241
-0.16365
-0.19010
-0.21223
-0.20244
-0.18796
-0.21181
-0.25478
-0.26937
-0.24977
-0.24763
-0.28434
-0.29987
-0.27147
-0.26975
-0.32063
-0.33389
-0.29757
-0.30044
-0.31799
-0.32012
-0.29789
-0.29944
-0.32934
-0.34509
-0.31718
-0.27830
-0.29037
-0.29864
-0.28219
-0.27987
-0.28702
-0.30555
-0.29564
-0.26558
-0.27024
-0.29674
-0.29631
-0.27277
-0.26858
-0.30662
-0.30541
-0.26779
-0.26698
-0.27718
-0.27390
-0.27199
-0.24916
-0.25723
-0.27522
-0.27656
-0.26289
-0.26373
-0.27786
-0.27099
-0.27041
-0.29139
-0.29869
-0.29846
-0.27445
-0.28627
-0.30473
-0.31551
-0.29092
-0.27760
-0.29301
-0.28129
-0.29032
-0.29600
-0.31373
-0.30884
-0.30630
-0.30542
-0.30632
-0.32486
-0.31392
-0.29033
-0.29844
-0.32901
-0.32086
-0.31610
-0.32178
-0.34315
-0.34807
-0.31102
-0.29837
-0.30690
-0.29620
-0.28052
-0.27721
-0.29465
-0.30472
-0.28030
-0.27868
-0.30337
-0.31372
-0.29143
-0.27620
-0.31203
-0.33868
-0.31952
-0.29289
-0.30093
-0.31236
-0.30688
-0.29388
-0.31294
-0.35015
-0.31706
-0.30210
-0.30224
-0.32177
-0.31799
-0.29339
-0.31249
-0.31560
-0.30957
-0.28380
-0.28429
-0.29403
-0.31096
-0.29901
-0.28701
-0.29730
-0.30406
-0.26096
-0.24463
-0.27785
-0.27778
-0.24372
-0.23308
-0.24806
-0.26549
-0.25418
-0.24889
-0.25222
-0.26280
-0.27929
-0.26628
-0.25593
-0.28053
-0.29837
-0.28806
-0.25193
-0.27946
-0.30508
-0.29491
-0.27728
-0.29570
-0.31300
-0.29436
-0.26788
-0.28145
-0.29307
-0.27924
-0.24948
-0.24151
-0.26163
-0.23941
-0.18448
-0.14568
-0.10620
-0.01808
0.13544
0.36729
0.61435
0.89956
1.19112
1.36201
1.31040
1.00746
0.58629
0.09525
-0.34466
-0.49055
-0.38958
-0.28917
-0.27786
-0.28330
-0.29839
-0.28339
-0.30635
-0.33785
-0.33087
-0.32564
-0.32744
-0.33644
-0.33753
-0.32482
-0.33553
-0.34377
-0.33156
-0.32348
-0.30024
-0.30999
-0.32105
-0.31230
-0.29035
-0.29910
-0.29930
-0.29837
-0.29907
-0.27843
-0.29634
-0.28355
-0.29111
-0.30630
-0.30677
-0.32125
-0.28907
-0.28813
-0.32242
-0.33255
-0.30060
-0.29479
-0.32116
-0.30828
-0.26324
-0.24627
-0.25514
-0.24571
-0.22872
-0.21805
-0.20441
-0.23085
-0.19638
-0.16687
-0.19628
-0.18449
-0.15026
-0.15160
-0.18413
-0.17978
-0.15406
-0.12237
-0.09880
-0.11733
-0.11128
-0.09855
-0.11230
-0.11803
-0.10919
-0.08453
-0.07759
-0.09486
-0.10312
-0.09122
-0.08102
-0.10300
-0.12233
-0.12922
-0.13217
-0.14527
-0.17975
-0.16188
-0.15412
-0.16091
-0.19356
-0.20704
-0.18414
-0.18854
-0.21839
-0.22891
-0.21978
-0.22535
-0.23791
-0.24272
-0.19616
-0.20596
-0.23000
-0.23944
-0.20911
-0.21129
-0.22448
-0.22690
-0.21045
-0.19627
-0.20246
-0.22548
-0.21749
-0.19877
-0.21071
-0.20632
-0.19995
-0.17625
-0.18489
-0.20042
-0.20211
-0.18445
-0.18341
-0.19101
-0.19696
-0.17610
-0.17526
-0.20516
-0.20062
-0.18711
-0.18895
-0.20168
-0.21223
-0.20225
-0.19922
-0.21727
-0.24399
-0.23002
-0.21777
-0.23371
-0.24640
-0.23198
-0.22188
-0.23836
-0.24564
-0.24163
-0.22227
-0.22735
-0.24665
-0.26613
-0.23965
-0.21801
-0.24712
-0.27274
-0.24122
-0.22657
-0.24251
-0.26070
-0.23631
-0.22468
-0.23680
-0.26304
-0.24763
-0.22251
-0.24317
-0.26186
-0.24813
-0.23087
-0.23750
-0.25603
-0.25182
-0.23173
-0.23561
-0.25163
-0.25393
-0.24190
-0.23977
-0.24290
-0.24877
-0.21586
-0.20725
-0.21889
-0.22252
-0.22195
-0.19058
-0.21340
-0.22824
-0.20232
-0.19888
-0.17773
-0.13846
-0.04954
0.08616
0.25436
0.49540
0.79517
1.08785
1.33297
1.42917
1.35898
1.08367
0.63582
0.12419
-0.31862
-0.46895
-0.36541
-0.28627
-0.26181
-0.26066
-0.25544
-0.27229
-0.29292
-0.27162
-0.26819
-0.27169
-0.29441
-0.29824
-0.26850
-0.27068
-0.29085
-0.29924
-0.29938
-0.29250
-0.31722
-0.31045
-0.29250
-0.29813
-0.30924
-0.30617
-0.29571
-0.29797
-0.30330
-0.31976
-0.31016
-0.29688
-0.30609
-0.30677
-0.28725
-0.29426
-0.30013
-0.30459
-0.27677
-0.24977
-0.23364
-0.24294
-0.22502
-0.20337
-0.19529
-0.20728
-0.18883
-0.16458
-0.15160
-0.15224
-0.15125
-0.12740
-0.11462
-0.13142
-0.12480
-0.11301
-0.09223
-0.10488
-0.11296
-0.09956
-0.07295
-0.08406
-0.08785
-0.08915
-0.08285
-0.08282
-0.09715
-0.06649
-0.06106
-0.06836
-0.09287
-0.10359
-0.10144
-0.10724
-0.12426
-0.15402
-0.15010
-0.14954
-0.18228
-0.19793
-0.19539
-0.19019
-0.21296
-0.24481
-0.22328
-0.20975
-0.23161
-0.24228
-0.23220
-0.22215
-0.22328
-0.23656
-0.23484
-0.22056
-0.23277
-0.24784
-0.23928
-0.20960
-0.19603
-0.20697
-0.20447
-0.18463
-0.17007
-0.17068
-0.15499
-0.09804
-0.06028
-0.03937
0.01024
0.11627
0.22219
0.30950
0.40875
0.53599
0.65922
0.78309
0.88320
0.99408
1.09231
1.07891
1.02913
0.99322
0.95787
0.86492
0.70284
0.55200
0.39511
0.22117
0.09260
0.02686
0.03218
0.02098
-0.01587
0.03146
0.16144
0.34478
0.38809
0.18168
-0.13182
-0.33756
-0.42131
-0.45628
-0.48117
-0.49291
-0.51747
-0.57639
-0.59796
-0.59165
-0.60073
-0.60610
-0.61128
-0.60392
-0.60675
-0.63028
-0.64259
-0.64525
-0.63594
-0.65455
-0.66831
-0.67972
-0.68904
-0.69245
-0.70545
-0.71068
-0.69859
-0.71046
-0.73300
-0.73819
-0.71579
-0.70726
-0.73359
-0.73834
-0.71407
-0.71287
-0.71430
-0.70049
-0.66669
-0.64011
-0.63577
-0.62740
-0.60803
-0.55213
-0.54625
-0.52755
-0.47662
-0.42913
-0.41127
-0.38553
-0.35218
-0.30877
-0.28267
-0.29885
-0.29392
-0.25265
-0.24220
-0.25698
-0.25567
-0.22685
-0.24907
-0.27200
-0.26221
-0.24815
-0.24292
-0.28092
-0.27296
-0.26417
-0.26096
-0.27173
-0.28664
-0.27443
-0.26759
-0.27904
-0.29424
-0.25525
-0.24174
-0.26353
-0.27877
-0.28373
-0.24751
-0.26374
-0.28514
-0.27200
-0.25616
-0.24985
-0.26481
-0.24433
-0.21518
-0.21028
-0.24395
-0.22482
-0.22374
-0.22014
-0.23289
-0.23740
-0.21879
-0.22179
-0.24019
-0.25215
-0.24600
-0.23133
-0.23077
-0.25245
-0.23156
-0.20362
-0.22083
-0.24659
-0.25317
-0.24649
-0.24595
-0.25731
-0.24275
-0.21535
-0.22588
-0.25753
-0.25446
-0.23454
-0.22994
-0.23916
-0.25619
-0.24634
-0.23340
-0.23476
-0.24185
-0.24698
-0.22395
-0.23914
-0.24109
-0.24553
-0.23770
-0.22041
-0.24822
-0.23616
-0.22949
-0.22907
-0.24089
-0.24503
-0.23319
-0.20897
-0.22032
-0.24179
-0.24754
-0.23510
-0.23922
-0.23417
-0.21943
-0.19802
-0.19935
-0.21860
-0.21219
-0.19789
-0.21077
-0.23290
-0.23098
-0.20490
-0.21296
-0.24545
-0.21635
-0.18723
-0.19040
-0.23199
-0.24493
-0.24186
-0.21786
-0.21861
-0.22204
-0.20919
-0.21373
-0.21693
-0.21989
-0.20021
-0.18591
-0.21732
-0.20796
-0.18392
-0.11684
-0.01266
0.10605
0.33225
0.63945
0.92252
1.18163
1.41913
1.52827
1.38353
0.93679
0.40438
-0.11947
-0.45327
-0.44890
-0.32052
-0.22696
-0.21927
-0.25998
-0.28614
-0.27030
-0.26989
-0.28579
-0.30588
-0.29211
-0.27525
-0.28557
-0.30568
-0.30810
-0.29836
-0.28938
-0.29928
-0.28879
-0.25959
-0.25912
-0.29002
-0.29249
-0.27612
-0.26124
-0.27031
-0.27244
-0.26623
-0.23524
-0.25294
-0.27030
-0.25666
-0.24248
-0.24995
-0.28116
-0.27203
-0.26361
-0.27241
-0.26711
-0.25319
-0.22969
-0.23971
-0.25047
-0.23151
-0.18681
-0.19335
-0.20796
-0.16558
-0.13036
-0.12771
-0.14948
-0.14651
-0.10145
-0.07487
-0.06541
-0.08924
-0.06272
-0.02455
-0.03016
-0.02237
-0.00769
0.02016
0.01664
-0.00122
0.02179
0.01060
0.00979
-0.02151
-0.03668
-0.04583
-0.07118
-0.09956
-0.11775
-0.12020
-0.13159
-0.16632
-0.18893
-0.18415
-0.18121
-0.18230
-0.22099
-0.22369
-0.21699
-0.21541
-0.22317
-0.22494
-0.21843
-0.22244
-0.21877
-0.21117
-0.17723
-0.18361
-0.19184
-0.19480
-0.16486
-0.15928
-0.16144
-0.16956
-0.15168
-0.14883
-0.18813
-0.19501
-0.17666
-0.17742
-0.19500
-0.20621
-0.19124
-0.17523
-0.17916
-0.18701
-0.18310
-0.16705
-0.17540
-0.21406
-0.22307
-0.20997
-0.21252
-0.23081
-0.23241
-0.18522
-0.18123
-0.20416
-0.22126
-0.19741
-0.19564
-0.19341
-0.21999
-0.20790
-0.18127
-0.21428
-0.21959
-0.22639
-0.20485
-0.22655
-0.23504
-0.20963
-0.18663
-0.19535
-0.21148
-0.20132
-0.19515
-0.19229
-0.20854
-0.22185
-0.20163
-0.20600
-0.21877
-0.21910
-0.18419
-0.18032
-0.20827
-0.20392
-0.16051
-0.11605
-0.05052
0.06587
0.27316
0.54789
0.85481
1.15466
1.43425
1.54635
1.41387
1.02407
0.54107
0.04969
-0.42553
-0.55968
-0.42655
-0.30560
-0.25700
-0.28051
-0.27290
-0.24558
-0.24573
-0.27274
-0.25421
-0.25194
-0.25373
-0.29033
-0.32061
-0.30862
-0.29728
-0.30133
-0.32098
-0.30668
-0.29337
-0.30135
-0.30987
-0.28656
-0.26279
-0.27601
-0.29224
-0.27976
-0.26201
-0.27324
-0.27635
-0.27675
-0.25730
-0.25622
-0.27767
-0.27749
-0.26732
-0.24028
-0.24136
-0.25468
-0.22304
-0.22752
-0.23110
-0.24464
-0.23629
-0.20506
-0.21049
-0.21551
-0.19197
-0.16300
-0.16239
-0.17934
-0.17516
-0.13406
-0.12488
-0.13311
-0.11012
-0.09360
-0.10053
-0.11169
-0.10782
-0.09072
-0.06224
-0.06533
-0.06708
-0.04611
-0.02905
-0.03394
-0.05127
-0.03943
-0.02603
-0.05242
-0.07437
-0.07787
-0.06418
-0.08445
-0.11329
-0.12713
-0.12093
-0.15793
-0.18778
-0.18723
-0.18434
-0.18977
-0.22248
-0.22956
-0.20296
-0.21112
-0.22896
-0.23286
-0.21608
-0.20561
-0.23024
-0.25180
-0.22509
-0.21324
-0.23967
-0.24761
-0.25199
-0.20884
-0.21525
-0.22143
-0.21906
-0.19808
-0.19475
-0.22788
-0.22320
-0.19181
-0.18539
-0.19793
-0.19400
-0.18984
-0.18980
-0.21342
-0.21578
-0.18304
-0.17639
-0.19336
-0.20270
-0.20152
-0.17962
-0.19413
-0.20981
-0.19312
-0.18055
-0.20654
-0.22075
-0.21463
-0.19639
-0.18602
-0.19334
-0.20378
-0.19177
-0.20353
-0.23296
-0.25213
-0.21693
-0.20787
-0.21818
-0.23242
-0.22520
-0.21184
-0.22627
-0.23088
-0.20330
-0.18523
-0.20586
-0.21456
-0.19593
-0.18573
-0.19517
-0.22015
-0.21420
-0.20762
-0.20894
-0.23097
-0.22750
-0.20634
-0.18869
-0.22174
-0.24094
-0.20202
-0.18396
-0.20452
-0.21383
-0.19057
-0.18446
-0.17600
-0.16511
-0.07277
0.02784
0.17188
0.38618
0.69282
1.02385
1.27668
1.43947
1.43964
1.19065
0.72883
0.24591
-0.23422
-0.44905
-0.40426
-0.31316
-0.26168
-0.23137
-0.22977
-0.25494
-0.26366
-0.22824
-0.25160
-0.26377
-0.28626
-0.29073
-0.28931
-0.29666
-0.32051
-0.29647
-0.28701
-0.30727
-0.33191
-0.31733
-0.30000
-0.31908
-0.34402
-0.31262
-0.30620
-0.29780
-0.31445
-0.31759
-0.27416
-0.27168
-0.29120
-0.30086
-0.26281
-0.25079
-0.25533
-0.26780
-0.25780
-0.24474
-0.25431
-0.24665
-0.24548
-0.21980
-0.20835
-0.21974
-0.19579
-0.17990
-0.18008
-0.19005
-0.16220
-0.13484
-0.12116
-0.13177
-0.12544
-0.10345
-0.10319
-0.12021
-0.10689
-0.07964
-0.06620
-0.08320
-0.07477
-0.06071
-0.04983
-0.04061
-0.06008
-0.05310
-0.03726
-0.05423
-0.07043
-0.07667
-0.04983
-0.05988
-0.09498
-0.08789
-0.10223
-0.12105
-0.14331
-0.15558
-0.14373
-0.15054
-0.18183
-0.22390
-0.19570
-0.20764
-0.23670
-0.24612
-0.23244
-0.21536
-0.22948
-0.26053
-0.24844
-0.22181
-0.23388
-0.23998
-0.25491
-0.23888
-0.23095
-0.23780
-0.23415
-0.21681
-0.20051
-0.22614
-0.22120
-0.18524
-0.18345
-0.18771
-0.18997
-0.16784
-0.15915
-0.17891
-0.19877
-0.18666
-0.16460
-0.17924
-0.19428
-0.18935
-0.18295
-0.19279
-0.21233
-0.20951
-0.19310
-0.19785
-0.22297
-0.21943
-0.19543
-0.20013
-0.22537
-0.24129
-0.20856
-0.21354
-0.23081
-0.23683
-0.21331
-0.20436
-0.20935
-0.21471
-0.20426
-0.18701
-0.21623
-0.22594
-0.20929
-0.18271
-0.19660
-0.20405
-0.18658
-0.17797
-0.18725
-0.20691
-0.20776
-0.22999
-0.22439
-0.23941
-0.22778
-0.19092
-0.17017
-0.16523
-0.12154
-0.00212
0.14535
0.34859
0.60212
0.90313
1.19846
1.41623
1.50579
1.43062
1.14588
0.68543
0.19416
-0.29268
-0.51097
-0.49883
-0.42234
-0.34174
-0.28115
-0.28458
-0.31216
-0.30784
-0.28787
-0.29252
-0.30401
-0.31412
-0.31038
-0.28463
-0.30514
-0.31904
-0.31610
-0.30953
-0.31605
-0.33140
-0.31085
-0.29912
-0.31937
-0.35392
-0.36156
-0.33241
-0.33946
-0.35912
-0.33951
-0.31480
-0.33432
-0.35067
-0.35073
-0.33164
-0.31848
-0.33488
-0.33641
-0.31012
-0.31368
-0.32037
-0.32454
-0.30154
-0.29197
-0.29792
-0.31292
-0.28698
-0.26346
-0.25925
-0.26511
-0.25002
-0.22115
-0.23263
-0.23498
-0.20113
-0.17823
-0.20724
-0.21701
-0.19819
-0.15877
-0.14812
-0.16427
-0.15866
-0.14276
-0.12059
-0.13123
-0.13908
-0.11813
-0.10261
-0.11531
-0.11889
-0.10868
-0.11713
-0.13924
-0.15663
-0.15266
-0.14475
-0.16659
-0.20403
-0.21621
-0.19141
-0.21935
-0.26531
-0.26274
-0.24753
-0.26192
-0.30059
-0.30573
-0.30248
-0.30984
-0.33640
-0.32763
-0.30100
-0.28813
-0.30230
-0.32061
-0.29618
-0.26685
-0.28312
-0.29624
-0.27791
-0.25877
-0.26163
-0.28527
-0.28783
-0.25874
-0.26505
-0.29261
-0.28746
-0.24266
-0.24268
-0.26053
-0.27182
-0.24496
-0.24834
-0.25576
-0.26170
-0.23726
-0.22439
-0.26466
-0.27090
-0.26050
-0.24625
-0.26879
-0.30397
-0.29743
-0.28817
-0.29624
-0.31587
-0.29435
-0.26874
-0.28616
-0.28502
-0.28220
-0.27684
-0.26889
-0.27782
-0.28816
-0.26153
-0.25673
-0.24973
-0.28403
-0.31147
-0.28799
-0.30789
-0.30242
-0.28120
-0.27464
-0.30156
-0.32375
-0.30691
-0.29612
-0.29746
-0.32731
-0.32453
-0.30046
-0.30528
-0.32229
-0.33089
-0.31936
-0.30568
-0.31236
-0.30971
-0.29845
-0.30939
-0.30475
-0.32984
-0.31057
-0.30214
-0.30141
-0.29259
-0.28858
-0.27857
-0.29563
-0.30993
-0.28067
-0.24469
-0.28030
-0.30938
-0.29445
-0.26668
-0.26549
-0.28922
-0.27304
-0.24893
-0.25098
-0.27257
-0.29212
-0.28551
-0.26385
-0.27834
-0.27535
-0.26830
-0.23153
-0.19039
-0.12474
-0.00389
0.17180
0.38590
0.61843
0.88750
1.18178
1.35884
1.36645
1.11779
0.73710
0.32070
-0.13474
-0.47698
-0.52473
-0.40749
-0.33077
-0.30374
-0.30486
-0.31777
-0.34050
-0.34879
-0.35334
-0.34324
-0.35961
-0.38361
-0.38372
-0.37032
-0.38680
-0.40034
-0.38483
-0.34798
-0.34645
-0.34999
-0.36553
-0.35873
-0.35479
-0.36730
-0.37005
-0.36493
-0.35700
-0.36908
-0.37429
-0.36396
-0.35442
-0.38202
-0.38555
-0.36371
-0.35402
-0.37085
-0.37438
-0.34842
-0.32856
-0.35102
-0.35854
-0.32964
-0.30459
-0.31753
-0.33032
-0.33012
-0.30605
-0.30083
-0.30983
-0.29039
-0.25633
-0.23529
-0.25823
-0.26872
-0.23534
-0.20500
-0.21821
-0.23495
-0.20103
-0.17594
-0.17058
-0.17000
-0.15943
-0.13373
-0.12400
-0.13924
-0.11783
-0.09739
-0.12314
-0.13098
-0.13490
-0.11537
-0.11770
-0.14205
-0.14568
-0.12956
-0.12691
-0.15478
-0.17830
-0.16776
-0.17086
-0.21493
-0.24066
-0.24119
-0.24565
-0.28309
-0.29539
-0.27629
-0.27657
-0.28956
-0.31181
-0.29478
-0.27205
-0.27446
-0.29962
-0.30768
-0.28749
-0.29362
-0.29866
-0.30259
-0.27889
-0.26254
-0.28880
-0.29610
-0.27758
-0.28175
-0.29481
-0.28017
-0.26707
-0.25830
-0.27245
-0.28128
-0.26645
-0.24912
-0.24729
-0.25471
-0.24716
-0.22702
-0.23930
-0.25727
-0.27106
-0.24550
-0.24948
-0.25813
-0.26170
-0.26602
-0.27247
-0.30974
-0.30379
-0.25624
-0.25373
-0.28575
-0.30408
-0.27635
-0.24882
-0.26896
-0.28437
-0.26620
-0.24807
-0.25833
-0.28737
-0.29666
-0.27053
-0.27534
-0.27266
-0.26267
-0.26725
-0.25557
-0.28773
-0.27688
-0.24299
-0.22841
-0.25315
-0.25970
-0.24138
-0.23829
-0.24249
-0.24803
-0.23527
-0.23384
-0.25248
-0.26634
-0.24631
-0.23430
-0.24363
-0.23935
-0.15982
-0.05003
0.06014
0.25285
0.57274
0.92224
1.20796
1.39873
1.42197
1.21496
0.81060
0.32528
-0.15983
-0.45622
-0.49228
-0.40120
-0.33748
-0.29456
-0.29126
-0.30842
-0.32427
-0.31866
-0.30529
-0.33178
-0.34469
-0.33052
-0.32318
-0.33924
-0.35020
-0.35654
-0.34627
-0.36157
-0.38050
-0.38453
-0.36845
-0.36148
-0.36949
-0.36784
-0.34478
-0.32476
-0.33680
-0.34457
-0.31487
-0.29860
-0.32127
-0.33760
-0.31721
-0.30677
-0.32117
-0.31043
-0.29558
-0.27827
-0.28819
-0.28296
-0.28182
-0.25219
-0.25374
-0.26908
-0.26235
-0.25220
-0.23051
-0.23724
-0.23493
-0.19625
-0.18543
-0.21114
-0.21393
-0.17413
-0.15802
-0.16818
-0.16747
-0.16248
-0.13813
-0.13072
-0.13094
-0.11872
-0.08634
-0.08670
-0.10680
-0.10430
-0.07546
-0.07978
-0.10977
-0.12283
-0.11592
-0.14107
-0.17131
-0.19229
-0.18620
-0.20408
-0.23496
-0.24873
-0.24293
-0.24129
-0.27055
-0.28113
-0.25715
-0.24998
-0.27517
-0.28912
-0.29327
-0.26875
-0.26141
-0.26251
-0.21915
-0.15070
-0.13225
-0.12826
-0.11075
-0.03481
0.04794
0.13134
0.20963
0.30255
0.41600
0.50383
0.57518
0.70965
0.83407
0.94607
1.05288
1.08215
1.04299
1.00130
0.95862
0.89737
0.77453
0.58957
0.40573
0.24360
0.09640
-0.03148
-0.10110
-0.09971
-0.08398
-0.11515
-0.07463
0.04542
0.21924
0.32084
0.21063
-0.03293
-0.26468
-0.38960
-0.44800
-0.45936
-0.46392
-0.48683
-0.52798
-0.56256
-0.57608
-0.57748
-0.60696
-0.62898
-0.62227
-0.61737
-0.62506
-0.65819
-0.66727
-0.65740
-0.67170
-0.69650
-0.71297
-0.69527
-0.70874
-0.71886
-0.70797
-0.70007
-0.68688
-0.69995
-0.72783
-0.71678
-0.68403
-0.68913
-0.69996
-0.68271
-0.66726
-0.67695
-0.68211
-0.65977
-0.62866
-0.63532
-0.65430
-0.62708
-0.59036
-0.56033
-0.56128
-0.51943
-0.48083
-0.46650
-0.45065
-0.43293
-0.39040
-0.36860
-0.35953
-0.35949
-0.34000
-0.31902
-0.32861
-0.33106
-0.31275
-0.29211
-0.28890
-0.30546
-0.29835
-0.27482
-0.28611
-0.28412
-0.27496
-0.26622
-0.26970
-0.28875
-0.29519
-0.27368
-0.25618
-0.26902
-0.28289
-0.26960
-0.25523
-0.28452
-0.29644
-0.28323
-0.26368
-0.27082
-0.29043
-0.27763
-0.25641
-0.25456
-0.26236
-0.25195
-0.23189
-0.24380
-0.25026
-0.25059
-0.23193
-0.22197
-0.24661
-0.25076
-0.23215
-0.23473
-0.24885
-0.26197
-0.24040
-0.22561
-0.23676
-0.24797
-0.25146
-0.22528
-0.23627
-0.25039
-0.23930
-0.22344
-0.25094
-0.27321
-0.27710
-0.23565
-0.23664
-0.25347
-0.25301
-0.22870
-0.23478
-0.23833
-0.23009
-0.21444
-0.22060
-0.24223
-0.23523
-0.22725
-0.22776
-0.24287
-0.24663
-0.23831
-0.22942
-0.24435
-0.25332
-0.24730
-0.23797
-0.23990
-0.25379
-0.23929
-0.22184
-0.22399
-0.24547
-0.23011
-0.22986
-0.22694
-0.24138
-0.25458
-0.22227
-0.21174
-0.24056
-0.24100
-0.21061
-0.21451
-0.23163
-0.22197
-0.20184
-0.19428
-0.20052
-0.21827
-0.21728
-0.19550
-0.23164
-0.24745
-0.24914
-0.23133
-0.22852
-0.23760
-0.23506
-0.21674
-0.21721
-0.24318
-0.23406
-0.22220
-0.22164
-0.22986
-0.22088
-0.20485
-0.21269
-0.23482
-0.23350
-0.21644
-0.20016
-0.23321
-0.24711
-0.23625
-0.21162
-0.21205
-0.22946
-0.20740
-0.19226
-0.20042
-0.21531
-0.20597
-0.18133
-0.18262
-0.19806
-0.20756
-0.19928
-0.20156
-0.19535
-0.19334
-0.17501
-0.18173
-0.19832
-0.20906
-0.18501
-0.16680
-0.18626
-0.20128
-0.18891
-0.16935
-0.17705
-0.20095
-0.20765
-0.17996
-0.18638
-0.20674
-0.20897
-0.17845
-0.17644
-0.18754
-0.20584
-0.19021
-0.17461
-0.19306
-0.17651
-0.14398
-0.12002
-0.12227
-0.08636
0.03546
0.21932
0.44862
0.72293
1.01917
1.29686
1.43899
1.31713
0.92017
0.45149
-0.05096
-0.39699
-0.41762
-0.26851
-0.18890
-0.22609
-0.24540
-0.24785
-0.24039
-0.27923
-0.29345
-0.26123
-0.25678
-0.28318
-0.28934
-0.27290
-0.26661
-0.27482
-0.27113
-0.25739
-0.25119
-0.26643
-0.27682
-0.26480
-0.25556
-0.25590
-0.26263
-0.27203
-0.24046
-0.24799
-0.25886
-0.25207
-0.23369
-0.24053
-0.25386
-0.25942
-0.23247
-0.22336
-0.23760
-0.24595
-0.22645
-0.21197
-0.19290
-0.19090
-0.17584
-0.14189
-0.15679
-0.15878
-0.14076
-0.11947
-0.11288
-0.12008
-0.10995
-0.07631
-0.06340
-0.07072
-0.06788
-0.04480
-0.02720
-0.03992
-0.04768
-0.01198
-0.00425
-0.00304
-0.00624
0.00973
0.02167
0.00878
0.00077
0.02080
0.03943
0.02748
0.00943
0.01298
0.01081
-0.02274
-0.05650
-0.06787
-0.04391
-0.05403
-0.08271
-0.11877
-0.12202
-0.10987
-0.12342
-0.12869
-0.11156
-0.12297
-0.15281
-0.15798
-0.14919
-0.12094
-0.12861
-0.15984
-0.15764
-0.13903
-0.15028
-0.18370
-0.14586
-0.12776
-0.13959
-0.17352
-0.15256
-0.13259
-0.13861
-0.14923
-0.14118
-0.13438
-0.13549
-0.14595
-0.13333
-0.11324
-0.10117
-0.11226
-0.11837
-0.10913
-0.08752
-0.10561
-0.13572
-0.11268
-0.09121
-0.11181
-0.14903
-0.13922
-0.13352
-0.14253
-0.16804
-0.15203
-0.13954
-0.15746
-0.18577
-0.17184
-0.17019
-0.16898
-0.18131
-0.19537
-0.17277
-0.15928
-0.19972
-0.20185
-0.15956
-0.15514
-0.17417
-0.18987
-0.17514
-0.14345
-0.15379
-0.15219
-0.15476
-0.12470
-0.08221
-0.00077
0.12125
0.32023
0.60783
0.90800
1.22939
1.42996
1.37836
1.03332
0.51937
0.02699
-0.38464
-0.51016
-0.39854
-0.27674
-0.19629
-0.21278
-0.24045
-0.22411
-0.22921
-0.23196
-0.23512
-0.24607
-0.24106
-0.25324
-0.28353
-0.27986
-0.25275
-0.24405
-0.25852
-0.27763
-0.27009
-0.26705
-0.27879
-0.27544
-0.24151
-0.24154
-0.26854
-0.27531
-0.26914
-0.25792
-0.26667
-0.27056
-0.27113
-0.23414
-0.25468
-0.26845
-0.24040
-0.24123
-0.24515
-0.25789
-0.23313
-0.21244
-0.21026
-0.22681
-0.22464
-0.20801
-0.19366
-0.19210
-0.21023
-0.18028
-0.16682
-0.17778
-0.18853
-0.17384
-0.15839
-0.15760
-0.14736
-0.12798
-0.10265
-0.11398
-0.11287
-0.09929
-0.09759
-0.10999
-0.10389
-0.08658
-0.07745
-0.09342
-0.10826
-0.11904
-0.10167
-0.10701
-0.14241
-0.15848
-0.15464
-0.16531
-0.17603
-0.19658
-0.17748
-0.17726
-0.21036
-0.24133
-0.22861
-0.19951
-0.21623
-0.23795
-0.22562
-0.20190
-0.21770
-0.23800
-0.22000
-0.21196
-0.20728
-0.20387
-0.20490
-0.17793
-0.18175
-0.20478
-0.19353
-0.17099
-0.16200
-0.17302
-0.18134
-0.16599
-0.16045
-0.18278
-0.17946
-0.16846
-0.16907
-0.19359
-0.21704
-0.19711
-0.16827
-0.18211
-0.20864
-0.20868
-0.18205
-0.18341
-0.21361
-0.20301
-0.18876
-0.20162
-0.21604
-0.21665
-0.19418
-0.18254
-0.19028
-0.21909
-0.21798
-0.19536
-0.21874
-0.23630
-0.20903
-0.19775
-0.21174
-0.21512
-0.19099
-0.19565
-0.20347
-0.21010
-0.20333
-0.20562
-0.20557
-0.21035
-0.21998
-0.20313
-0.19416
-0.20655
-0.21156
-0.20971
-0.19307
-0.20524
-0.21908
-0.20149
-0.19844
-0.21606
-0.22847
-0.21294
-0.20726
-0.20327
-0.20422
-0.20331
-0.19316
-0.20417
-0.20870
-0.19320
-0.17212
-0.19212
-0.20887
-0.20673
-0.19614
-0.18605
-0.17900
-0.14641
-0.02414
0.10281
0.24575
0.46510
0.74936
1.02954
1.29037
1.47011
1.42945
1.12103
0.64848
0.14678
-0.26634
-0.41403
-0.35929
-0.27114
-0.21558
-0.21092
-0.22499
-0.25876
-0.25755
-0.24754
-0.24758
-0.28370
-0.28603
-0.26476
-0.26599
-0.28906
-0.29509
-0.27234
-0.27744
-0.29029
-0.30716
-0.30030
-0.28477
-0.29810
-0.30058
-0.28867
-0.27725
-0.29156
-0.30315
-0.29780
-0.28043
-0.27464
-0.27774
-0.26390
-0.25589
-0.25302
-0.26704
-0.26552
-0.23532
-0.22459
-0.24714
-0.25971
-0.23537
-0.24468
-0.25300
-0.23799
-0.20766
-0.18257
-0.20074
-0.21914
-0.19703
-0.17522
-0.17605
-0.18178
-0.16707
-0.14827
-0.14621
-0.15405
-0.14389
-0.12657
-0.12721
-0.13503
-0.13861
-0.10923
-0.10180
-0.10064
-0.09358
-0.06787
-0.03699
-0.05065
-0.04728
-0.03729
-0.03808
-0.06140
-0.09195
-0.06951
-0.05348
-0.07301
-0.10603
-0.11987
-0.11042
-0.13042
-0.15761
-0.16243
-0.15676
-0.16762
-0.19703
-0.20691
-0.18434
-0.18918
-0.20345
-0.21081
-0.20698
-0.20310
-0.23109
-0.23827
-0.24596
-0.21837
-0.23062
-0.23580
-0.21627
-0.19498
-0.21089
-0.21833
-0.19552
-0.17159
-0.18155
-0.20714
-0.19822
-0.17177
-0.18721
-0.21098
-0.18235
-0.17503
-0.17732
-0.19749
-0.20020
-0.18249
-0.17044
-0.18463
-0.19213
-0.18911
-0.17978
-0.17739
-0.19326
-0.18263
-0.16851
-0.19338
-0.20839
-0.20385
-0.21159
-0.23431
-0.24211
-0.23221
-0.22207
-0.21586
-0.23745
-0.23427
-0.21677
-0.19847
-0.21815
-0.22393
-0.20263
-0.18179
-0.21803
-0.21789
-0.20037
-0.18398
-0.20100
-0.21316
-0.21199
-0.20698
-0.20982
-0.22138
-0.20313
-0.20184
-0.21862
-0.21743
-0.19662
-0.17500
-0.17065
-0.16665
-0.12126
-0.01331
0.13602
0.31407
0.55611
0.86725
1.18985
1.40837
1.43053
1.16889
0.70085
0.15558
-0.31588
-0.50427
-0.42542
-0.34076
-0.29190
-0.27329
-0.25831
-0.26674
-0.29078
-0.28101
-0.27279
-0.27554
-0.31013
-0.31776
-0.28166
-0.29048
-0.31326
-0.31402
-0.29410
-0.28614
-0.30082
-0.31587
-0.28885
-0.29473
-0.31657
-0.32271
-0.30677
-0.29487
-0.29419
-0.30988
-0.30106
-0.27868
-0.28054
-0.29179
-0.28436
-0.28043
-0.27938
-0.29426
-0.29186
-0.26199
-0.26619
-0.28151
-0.26617
-0.24209
-0.22299
-0.23250
-0.22480
-0.21368
-0.21207
-0.21312
-0.21407
-0.19361
-0.17185
-0.17134
-0.17315
-0.16668
-0.15261
-0.13484
-0.14946
-0.14047
-0.10203
-0.12004
-0.12971
-0.11642
-0.10154
-0.09096
-0.10980
-0.12281
-0.10763
-0.09680
-0.11891
-0.14332
-0.12726
-0.12145
-0.15666
-0.18069
-0.17750
-0.18398
-0.20761
-0.24349
-0.23815
-0.22978
-0.25126
-0.26595
-0.26861
-0.24626
-0.23990
-0.25927
-0.25585
-0.24926
-0.23629
-0.25624
-0.27169
-0.23080
-0.22521
-0.23022
-0.24217
-0.25445
-0.25855
-0.25290
-0.24625
-0.21244
-0.20310
-0.21719
-0.25688
-0.24890
-0.23090
-0.22708
-0.25554
-0.25617
-0.23274
-0.23714
-0.26115
-0.26275
-0.25344
-0.24933
-0.26370
-0.27130
-0.26549
-0.26580
-0.28397
-0.29839
-0.28375
-0.27339
-0.28780
-0.29401
-0.30252
-0.26416
-0.27892
-0.28447
-0.26751
-0.25526
-0.28388
-0.29456
-0.27965
-0.24486
-0.23585
-0.25722
-0.26876
-0.25316
-0.24123
-0.25944
-0.26808
-0.23555
-0.24713
-0.26415
-0.26836
-0.26469
-0.26550
-0.27178
-0.26611
-0.25953
-0.26867
-0.28910
-0.30253
-0.29078
-0.26138
-0.26719
-0.28279
-0.29364
-0.27955
-0.28276
-0.29373
-0.29289
-0.29207
-0.27086
-0.29260
-0.29232
-0.24796
-0.24040
-0.27156
-0.29466
-0.26202
-0.25009
-0.27851
-0.27841
-0.24371
-0.23587
-0.24484
-0.27126
-0.26251
-0.24533
-0.26494
-0.25586
-0.24954
-0.23310
-0.22226
-0.24867
-0.25912
-0.24466
-0.25531
-0.28846
-0.28129
-0.26372
-0.25397
-0.28364
-0.31117
-0.29778
-0.27477
-0.28222
-0.27933
-0.26305
-0.27084
-0.28602
-0.28913
-0.25250
-0.25068
-0.27450
-0.27000
-0.25670
-0.23894
-0.25565
-0.27247
-0.25683
-0.22697
-0.22557
-0.25542
-0.25997
-0.23178
-0.21874
-0.24475
-0.24205
-0.22539
-0.21152
-0.23002
-0.22470
-0.21003
-0.20439
-0.22751
-0.25281
-0.23043
-0.22382
-0.23171
-0.26971
-0.24493
-0.21430
-0.21354
-0.22578
-0.22610
-0.19775
-0.20194
-0.22801
-0.23494
-0.21612
-0.21210
-0.23218
-0.23472
-0.22354
-0.21372
-0.22080
-0.22402
-0.19109
-0.18252
-0.20015
-0.21594
-0.19359
-0.17658
-0.18119
-0.20362
-0.19355
-0.17143
-0.17191
-0.18640
-0.18153
-0.18182
-0.16691
-0.18343
-0.18873
-0.18435
-0.19865
-0.21870
-0.23043
-0.22691
-0.21638
-0.22991
-0.22980
-0.21044
-0.20712
-0.20433
-0.23326
-0.20204
-0.17401
-0.17857
-0.20089
-0.20602
-0.19514
-0.19225
-0.19220
-0.19784
-0.18284
-0.18879
-0.20212
-0.21953
-0.16955
-0.16163
-0.18244
-0.17845
-0.14821
-0.12535
-0.14716
-0.17182
-0.14586
-0.08398
-0.00532
0.11420
0.28765
0.50198
0.73439
0.96350
1.22445
1.44362
1.51172
1.29989
0.86873
0.45207
0.01790
-0.29689
-0.33551
-0.22069
-0.14557
-0.18375
-0.22191
-0.20149
-0.20042
-0.21607
-0.22677
-0.22387
-0.21025
-0.24835
-0.27488
-0.25023
-0.23704
-0.24942
-0.27805
-0.28148
-0.27512
-0.27044
-0.28464
-0.28385
-0.27683
-0.26599
-0.29154
-0.29173
-0.26337
-0.25759
-0.28467
-0.28318
-0.23900
-0.22349
-0.24820
-0.24565
-0.22040
-0.21778
-0.21225
-0.22425
-0.21382
-0.18997
-0.19525
-0.22274
-0.21337
-0.18409
-0.17282
-0.17478
-0.17131
-0.14771
-0.14936
-0.15560
-0.13871
-0.11026
-0.09709
-0.10216
-0.10819
-0.07857
-0.06989
-0.07964
-0.07578
-0.05530
-0.03483
-0.05408
-0.06721
-0.03599
-0.01142
-0.01306
-0.02226
0.00337
0.00371
-0.00473
-0.00171
0.02210
0.02777
0.00585
-0.01189
-0.03626
-0.03615
-0.03183
-0.07273
-0.08494
-0.08122
-0.10241
-0.12098
-0.14103
-0.13522
-0.13846
-0.16222
-0.18287
-0.17737
-0.17741
-0.18816
-0.20612
-0.18943
-0.17938
-0.19709
-0.20336
-0.20667
-0.18259
-0.19277
-0.20625
-0.19455
-0.17560
-0.16882
-0.18022
-0.18134
-0.16625
-0.14708
-0.16709
-0.15554
-0.15419
-0.13749
-0.14832
-0.15593
-0.15369
-0.13422
-0.15031
-0.18200
-0.16504
-0.15615
-0.16485
-0.17626
-0.18098
-0.17451
-0.19136
-0.19169
-0.18924
-0.18032
-0.16154
-0.18997
-0.19821
-0.19049
-0.19119
-0.20844
-0.20899
-0.19134
-0.18533
-0.20256
-0.21646
-0.21765
-0.19770
-0.21034
-0.21644
-0.19417
-0.18380
-0.20654
-0.21522
-0.19731
-0.18529
-0.19651
-0.21488
-0.20881
-0.21737
-0.21089
-0.22886
-0.23161
-0.20129
-0.19764
-0.22140
-0.23915
-0.24209
-0.22935
-0.23760
-0.23714
-0.22281
-0.22510
-0.24270
-0.26379
-0.23921
-0.22298
-0.23529
-0.25713
-0.24055
-0.23227
-0.23732
-0.25333
-0.25351
-0.22377
-0.21746
-0.24034
-0.23391
-0.21573
-0.20602
-0.23787
-0.24232
-0.21288
-0.20142
-0.21768
-0.23217
-0.22333
-0.23133
-0.23698
-0.24677
-0.24076
-0.22417
-0.24911
-0.26436
-0.25225
-0.22872
-0.24289
-0.25091
-0.24740
-0.22005
-0.22548
-0.24711
-0.24148
-0.23094
-0.22373
-0.24711
-0.26418
-0.24845
-0.24361
-0.26736
-0.26582
-0.23546
-0.21310
-0.22757
-0.25256
-0.23142
-0.21957
-0.22303
-0.24259
-0.21808
-0.22345
-0.23232
-0.24871
-0.24048
-0.22344
-0.22265
-0.24259
-0.24090
-0.21580
-0.20903
-0.23429
-0.24054
-0.22327
-0.20900
-0.22762
-0.23945
-0.23475
-0.22353
-0.22732
-0.22514
-0.21157
-0.20696
-0.20767
-0.24019
-0.21436
-0.21581
-0.21994
-0.23076
-0.23804
-0.21919
-0.22007
-0.21544
-0.19980
-0.13162
-0.03900
0.07510
0.25369
0.51319
0.78341
1.00471
1.20936
1.34805
1.24489
0.89758
0.47628
0.09742
-0.19622
-0.32652
-0.30134
-0.23150
-0.18066
-0.19442
-0.23401
-0.23364
-0.21720
-0.25237
-0.25575
-0.28469
-0.25396
-0.25642
-0.28867
-0.28899
-0.27643
-0.28410
-0.31238
-0.31601
-0.29994
-0.28737
-0.31794
-0.32193
-0.32717
-0.30129
-0.30032
-0.31904
-0.29971
-0.28298
-0.28622
-0.28713
-0.26874
-0.24230
-0.23483
-0.24950
-0.24990
-0.22688
-0.21086
-0.21222
-0.20757
-0.18654
-0.17670
-0.18385
-0.19234
-0.18153
-0.14704
-0.16448
-0.16660
-0.15912
-0.14068
-0.13672
-0.15591
-0.14768
-0.12118
-0.10573
-0.10653
-0.09446
-0.06468
-0.08406
-0.10541
-0.09920
-0.07592
-0.08158
-0.08654
-0.08667
-0.06750
-0.06854
-0.06710
-0.05459
-0.02213
-0.00648
-0.03574
-0.05108
-0.04327
-0.03395
-0.05936
-0.09297
-0.10299
-0.08643
-0.11485
-0.14657
-0.16970
-0.15851
-0.17450
-0.19713
-0.21172
-0.20476
-0.22033
-0.25196
-0.25652
-0.23323
-0.24436
-0.27657
-0.27195
-0.27377
-0.25879
-0.26193
-0.26418
-0.24671
-0.23121
-0.26255
-0.27889
-0.24963
-0.22900
-0.23859
-0.24507
-0.22380
-0.19976
-0.20431
-0.21749
-0.20373
-0.18171
-0.19655
-0.20001
-0.20717
-0.20523
-0.17964
-0.19482
-0.20332
-0.18829
-0.18389
-0.20534
-0.21360
-0.20914
-0.21111
-0.22163
-0.23752
-0.24917
-0.22883
-0.23127
-0.25497
-0.25888
-0.25096
-0.25066
-0.26069
-0.27810
-0.27211
-0.27782
-0.28216
-0.27608
-0.27641
-0.26508
-0.27299
-0.27452
-0.25379
-0.23938
-0.22236
-0.24837
-0.24190
-0.21537
-0.22047
-0.25103
-0.24259
-0.22169
-0.23117
-0.25217
-0.24314
-0.22475
-0.22665
-0.22488
-0.23364
-0.22730
-0.22256
-0.24913
-0.26498
-0.24741
-0.25391
-0.27834
-0.27101
-0.24521
-0.23472
-0.24477
-0.26345
-0.24948
-0.19470
-0.14968
-0.06611
0.09523
0.30693
0.53775
0.79352
1.06623
1.30080
1.30032
0.97418
0.46720
0.00869
-0.38597
-0.58587
-0.47526
-0.32987
-0.25368
-0.26707
-0.28103
-0.28844
-0.29091
-0.31500
-0.32498
-0.31168
-0.33070
-0.35833
-0.36792
-0.34669
-0.34219
-0.33921
-0.35555
-0.35010
-0.31633
-0.32490
-0.35647
-0.35537
-0.32066
-0.31372
-0.31732
-0.33708
-0.33198
-0.30699
-0.31619
-0.32444
-0.31116
-0.29112
-0.31782
-0.32661
-0.30210
-0.26690
-0.24663
-0.26995
-0.25871
-0.24732
-0.25775
-0.26305
-0.25282
-0.21355
-0.20418
-0.22573
-0.21751
-0.19503
-0.18595
-0.19651
-0.18895
-0.14569
-0.13327
-0.13886
-0.13857
-0.11142
-0.07754
-0.10255
-0.11893
-0.07713
-0.05240
-0.06742
-0.10897
-0.07837
-0.03751
-0.05942
-0.09221
-0.11015
-0.09538
-0.12611
-0.16350
-0.16047
-0.16113
-0.19123
-0.22531
-0.24037
-0.24907
-0.24432
-0.27866
-0.30484
-0.29579
-0.27192
-0.28875
-0.30183
-0.26597
-0.25314
-0.25890
-0.26795
-0.26064
-0.23912
-0.24276
-0.25091
-0.24020
-0.21139
-0.22637
-0.23544
-0.21290
-0.18493
-0.16850
-0.18454
-0.19935
-0.20209
-0.20642
-0.22582
-0.23145
-0.22730
-0.20327
-0.23812
-0.24460
-0.22898
-0.22190
-0.22325
-0.24485
-0.23877
-0.21039
-0.22372
-0.24424
-0.24374
-0.22744
-0.23250
-0.24890
-0.25173
-0.21900
-0.23166
-0.24627
-0.23389
-0.22107
-0.22760
-0.26186
-0.25877
-0.23363
-0.21403
-0.22693
-0.24391
-0.23329
-0.22174
-0.24153
-0.24286
-0.22836
-0.20321
-0.22009
-0.23829
-0.21581
-0.18955
-0.19664
-0.21028
-0.13876
-0.02220
0.11613
0.31777
0.61848
0.97305
1.26953
1.41466
1.28766
0.91451
0.41472
-0.13670
-0.49992
-0.47560
-0.32638
-0.27278
-0.28432
-0.27814
-0.26387
-0.27980
-0.29236
-0.29587
-0.27134
-0.28984
-0.30213
-0.30203
-0.27313
-0.29041
-0.29838
-0.29925
-0.30098
-0.27578
-0.29712
-0.31026
-0.29783
-0.30066
-0.33555
-0.33856
-0.31520
-0.32056
-0.32769
-0.33163
-0.33373
-0.30649
-0.31740
-0.31284
-0.31080
-0.29326
-0.30052
-0.31297
-0.30455
-0.27126
-0.24455
-0.26183
-0.24158
-0.22155
-0.20265
-0.20370
-0.19251
-0.16336
-0.14667
-0.14688
-0.13875
-0.12605
-0.10095
-0.10959
-0.12777
-0.12269
-0.09416
-0.11080
-0.12557
-0.10834
-0.08175
-0.08965
-0.09939
-0.10363
-0.10154
-0.10426
-0.11979
-0.13197
-0.13293
-0.14308
-0.16597
-0.18679
-0.19195
-0.17982
-0.20399
-0.22806
-0.21765
-0.22976
-0.23227
-0.25950
-0.24801
-0.23797
-0.25014
-0.26796
-0.27318
-0.26252
-0.27834
-0.28200
-0.27477
-0.26208
-0.26617
-0.28470
-0.27562
-0.23833
-0.25062
-0.26307
-0.25929
-0.23479
-0.22946
-0.25058
-0.25562
-0.24402
-0.24703
-0.22758
-0.24995
-0.25524
-0.22480
-0.23688
-0.24481
-0.25043
-0.22914
-0.23550
-0.26299
-0.26617
-0.25388
-0.25785
-0.27405
-0.27006
-0.24711
-0.23987
-0.26366
-0.27632
-0.24834
-0.25022
-0.26622
-0.27862
-0.27575
-0.27536
-0.27394
-0.28471
-0.28092
-0.26026
-0.27965
-0.28363
-0.28633
-0.26993
-0.26758
-0.28657
-0.28595
-0.28422
-0.27831
-0.29828
-0.29917
-0.26218
-0.24312
-0.27651
-0.28639
-0.27096
-0.26509
-0.29162
-0.29275
-0.29683
-0.28278
-0.28374
-0.30932
-0.28158
-0.25833
-0.27149
-0.27037
-0.25747
-0.24743
-0.25225
-0.25861
-0.24991
-0.19422
-0.12829
-0.03451
0.13611
0.41017
0.71918
1.00571
1.26198
1.41200
1.23781
0.74665
0.22135
-0.24959
-0.47050
-0.44639
-0.34837
-0.27342
-0.27096
-0.30020
-0.33593
-0.33453
-0.32822
-0.34878
-0.36715
-0.37399
-0.36200
-0.34319
-0.37785
-0.37937
-0.35718
-0.34998
-0.35960
-0.36698
-0.36238
-0.33558
-0.35395
-0.35260
-0.33251
-0.32465
-0.33032
-0.35224
-0.32709
-0.30461
-0.31670
-0.32846
-0.33185
-0.31338
-0.31104
-0.31312
-0.29973
-0.27361
-0.26700
-0.28691
-0.28848
-0.24691
-0.23398
-0.25258
-0.25539
-0.24153
-0.21591
-0.21882
-0.23538
-0.20718
-0.18486
-0.17885
-0.17525
-0.15658
-0.12779
-0.13005
-0.13299
-0.11118
-0.07894
-0.08479
-0.08769
-0.10298
-0.08109
-0.07177
-0.10189
-0.11625
-0.09536
-0.10297
-0.13912
-0.16880
-0.16423
-0.16758
-0.19622
-0.23974
-0.25286
-0.24139
-0.27801
-0.28080
-0.26450
-0.25037
-0.28562
-0.30220
-0.30179
-0.27648
-0.26837
-0.29308
-0.28291
-0.26837
-0.26823
-0.28462
-0.28168
-0.25565
-0.23521
-0.25767
-0.26852
-0.24809
-0.24260
-0.25142
-0.25836
-0.22445
-0.21653
-0.23515
-0.24911
-0.23763
-0.22510
-0.23041
-0.26203
-0.26695
-0.23980
-0.25736
-0.27281
-0.27288
-0.24839
-0.24635
-0.26774
-0.26797
-0.26239
-0.25900
-0.27663
-0.27409
-0.24788
-0.24552
-0.27768
-0.28956
-0.27619
-0.25155
-0.26822
-0.26666
-0.25966
-0.25335
-0.25706
-0.27709
-0.27430
-0.25627
-0.26704
-0.28528
-0.27088
-0.27215
-0.26639
-0.27434
-0.27842
-0.25169
-0.24477
-0.26725
-0.26224
-0.20875
-0.11877
-0.02687
0.12426
0.37437
0.67454
0.97053
1.23205
1.39704
1.30368
0.91323
0.38722
-0.10593
-0.42490
-0.48523
-0.39982
-0.30360
-0.27555
-0.27986
-0.29620
-0.30489
-0.29039
-0.28736
-0.32821
-0.35364
-0.33595
-0.33204
-0.34329
-0.36099
-0.33834
-0.33752
-0.35669
-0.36347
-0.35306
-0.34177
-0.36536
-0.38574
-0.37127
-0.34879
-0.37167
-0.39145
-0.37032
-0.35404
-0.35988
-0.36945
-0.37344
-0.35205
-0.34477
-0.33237
-0.33753
-0.31375
-0.30162
-0.31447
-0.31608
-0.30063
-0.26888
-0.27073
-0.27445
-0.25691
-0.22334
-0.23586
-0.26022
-0.23817
-0.20428
-0.20891
-0.21459
-0.21657
-0.19926
-0.19970
-0.21736
-0.20367
-0.17845
-0.16624
-0.18036
-0.18829
-0.16841
-0.15599
-0.15644
-0.15845
-0.12873
-0.11543
-0.15596
-0.17121
-0.16306
-0.14559
-0.15926
-0.19880
-0.20869
-0.19797
-0.20507
-0.23996
-0.23319
-0.21584
-0.23492
-0.27219
-0.28751
-0.29406
-0.29458
-0.30600
-0.31184
-0.28797
-0.29563
-0.30941
-0.32386
-0.32127
-0.30347
-0.31413
-0.31710
-0.32446
-0.30757
-0.32060
-0.33950
-0.31898
-0.30110
-0.31523
-0.32795
-0.31814
-0.28837
-0.28021
-0.27954
-0.28449
-0.27539
-0.26684
-0.29094
-0.28588
-0.27539
-0.27255
-0.26837
-0.27384
-0.27624
-0.26922
-0.27368
-0.29314
-0.26743
-0.26050
-0.28518
-0.30013
-0.29243
-0.26506
-0.29712
-0.31880
-0.30198
-0.26464
-0.27988
-0.31320
-0.31350
-0.29502
-0.28957
-0.30801
-0.30609
-0.29123
-0.29816
-0.31087
-0.33035
-0.30958
-0.31059
-0.32338
-0.34311
-0.33555
-0.30927
-0.31317
-0.32310
-0.30847
-0.30571
-0.31571
-0.34917
-0.33013
-0.30663
-0.30166
-0.31578
-0.32115
-0.30937
-0.31753
-0.32794
-0.32646
-0.29867
-0.28333
-0.30516
-0.33575
-0.32662
-0.30051
-0.30476
-0.31514
-0.31207
-0.29433
-0.30276
-0.32915
-0.31718
-0.28184
-0.27869
-0.30286
-0.28661
-0.27230
-0.28894
-0.30733
-0.29080
-0.27503
-0.27885
-0.31192
-0.30040
-0.27304
-0.27433
-0.26904
-0.28760
-0.25643
-0.21154
-0.15188
-0.04565
0.11808
0.34569
0.56031
0.81091
1.07739
1.25547
1.19659
0.85463
0.38030
-0.03282
-0.35708
-0.49133
-0.39234
-0.27898
-0.24972
-0.28910
-0.31789
-0.32508
-0.32005
-0.34665
-0.36514
-0.34311
-0.33589
-0.35291
-0.37367
-0.35861
-0.34141
-0.36306
-0.38605
-0.37874
-0.38403
-0.40037
-0.40678
-0.40940
-0.38716
-0.37150
-0.38944
-0.39667
-0.37647
-0.39062
-0.40444
-0.40346
-0.38336
-0.37211
-0.38795
-0.39299
-0.37205
-0.34899
-0.34596
-0.36119
-0.35097
-0.31583
-0.31755
-0.31056
-0.30026
-0.26818
-0.25883
-0.27579
-0.26862
-0.26105
-0.26159
-0.26047
-0.24070
-0.20708
-0.19811
-0.23542
-0.23729
-0.21995
-0.19038
-0.20597
-0.20206
-0.16454
-0.13229
-0.16047
-0.17530
-0.14909
-0.12496
-0.12688
-0.14068
-0.12561
-0.12561
-0.13456
-0.16901
-0.16841
-0.15390
-0.16485
-0.21060
-0.23077
-0.21849
-0.21530
-0.24078
-0.25068
-0.24726
-0.25829
-0.27214
-0.29473
-0.28387
-0.29033
-0.30767
-0.31404
-0.30664
-0.29400
-0.30151
-0.31984
-0.32126
-0.31529
-0.29825
-0.31741
-0.30810
-0.27823
-0.28065
-0.29589
-0.29707
-0.26797
-0.26299
-0.28330
-0.26791
-0.27395
-0.26013
-0.26982
-0.27500
-0.24311
-0.22978
-0.24656
-0.25309
-0.24838
-0.22646
-0.24392
-0.24963
-0.25665
-0.23962
-0.24534
-0.25809
-0.26496
-0.25056
-0.27405
-0.29189
-0.28721
-0.26639
-0.26767
-0.30700
-0.31536
-0.29966
-0.29344
-0.31109
-0.31715
-0.30485
-0.28543
-0.28703
-0.28899
-0.27726
-0.25843
-0.27654
-0.30134
-0.29771
-0.25907
-0.27724
-0.31058
-0.30691
-0.27292
-0.27954
-0.29950
-0.30402
-0.27106
-0.27181
-0.29670
-0.30294
-0.27598
-0.26990
-0.30345
-0.31723
-0.28283
-0.27005
-0.27506
-0.28315
-0.27522
-0.23310
-0.19032
-0.10902
0.05869
0.28242
0.53548
0.78894
1.05423
1.25102
1.29440
1.10741
0.77158
0.40349
-0.04299
-0.43775
-0.54036
-0.42141
-0.33478
-0.31262
-0.32796
-0.32842
-0.32033
-0.34642
-0.35633
-0.34997
-0.33312
-0.35059
-0.38466
-0.37571
-0.36929
-0.37157
-0.38895
-0.37891
-0.36942
-0.36655
-0.38158
-0.38699
-0.36103
-0.35613
-0.38814
-0.37821
-0.35766
-0.36054
-0.37513
-0.37323
-0.35900
-0.32325
-0.33361
-0.35029
-0.32943
-0.31239
-0.30429
-0.31994
-0.30193
-0.28683
-0.28390
-0.31496
-0.29967
-0.26085
-0.26791
-0.27107
-0.25983
-0.23326
-0.23449
-0.23942
-0.24382
-0.20640
-0.18975
-0.20287
-0.20034
-0.17778
-0.16798
-0.17541
-0.17060
-0.14982
-0.12267
-0.13969
-0.15880
-0.14007
-0.11526
-0.12201
-0.13533
-0.12865
-0.11687
-0.12363
-0.14561
-0.15503
-0.15466
-0.17598
-0.19881
-0.21652
-0.20624
-0.21877
-0.25323
-0.26589
-0.25981
-0.25128
-0.27773
-0.28303
-0.28311
-0.27081
-0.28851
-0.29549
-0.27303
-0.26431
-0.26462
-0.27434
-0.27247
-0.25041
-0.24655
-0.26464
-0.27100
-0.25810
-0.26578
-0.27067
-0.27001
-0.23449
-0.23980
-0.25483
-0.25642
-0.23354
-0.23158
-0.24354
-0.25435
-0.24319
-0.22505
-0.24869
-0.24563
-0.24262
-0.23035
-0.24553
-0.26948
-0.24874
-0.24172
-0.24459
-0.25362
-0.24742
-0.24170
-0.24188
-0.27114
-0.26294
-0.24249
-0.23583
-0.25292
-0.25544
-0.24799
-0.22890
-0.22486
-0.26197
-0.23578
-0.22956
-0.25551
-0.27376
-0.26013
-0.24220
-0.27234
-0.28441
-0.27407
-0.25737
-0.24946
-0.26659
-0.28145
-0.24946
-0.24714
-0.27232
-0.26303
-0.25564
-0.24763
-0.26677
-0.27146
-0.24774
-0.24336
-0.25658
-0.26543
-0.24943
-0.23003
-0.25539
-0.27319
-0.23889
-0.22398
-0.22275
-0.23895
-0.24329
-0.24411
-0.24387
-0.26716
-0.26200
-0.24851
-0.23459
-0.27470
-0.27542
-0.25966
-0.25686
-0.26895
-0.26347
-0.24908
-0.25138
-0.26487
-0.27545
-0.24336
-0.21911
-0.21884
-0.23249
-0.21166
-0.17496
-0.11622
-0.03849
0.12439
0.35196
0.60835
0.85333
1.10136
1.30049
1.33843
1.12754
0.73200
0.32537
-0.08161
-0.36787
-0.40066
-0.28790
-0.21289
-0.22864
-0.27086
-0.26281
-0.26513
-0.29244
-0.30612
-0.31188
-0.28692
-0.30873
-0.32588
-0.32497
-0.30571
-0.31910
-0.34526
-0.34203
-0.30602
-0.30777
-0.32749
-0.33051
-0.30251
-0.29530
-0.29698
-0.31031
-0.29609
-0.27859
-0.29946
-0.30777
-0.29525
-0.27653
-0.29833
-0.29814
-0.28965
-0.28151
-0.30314
-0.30390
-0.29639
-0.27358
-0.26746
-0.27304
-0.26953
-0.25873
-0.25115
-0.25791
-0.24559
-0.20843
-0.20508
-0.20431
-0.19591
-0.17919
-0.17768
-0.17919
-0.16969
-0.14122
-0.12729
-0.13304
-0.13701
-0.11401
-0.07936
-0.08805
-0.08206
-0.07328
-0.05052
-0.04365
-0.05155
-0.04342
-0.03259
-0.03803
-0.06496
-0.06762
-0.06402
-0.06126
-0.10689
-0.10724
-0.11040
-0.12136
-0.15550
-0.17541
-0.18650
-0.18015
-0.20443
-0.22044
-0.22407
-0.21102
-0.23272
-0.25580
-0.25368
-0.23322
-0.23878
-0.25402
-0.25277
-0.24924
-0.25370
-0.26771
-0.25548
-0.23184
-0.22093
-0.24354
-0.24967
-0.25893
-0.22796
-0.23670
-0.24911
-0.22853
-0.21988
-0.23340
-0.25881
-0.25867
-0.24298
-0.24319
-0.24127
-0.24472
-0.23409
-0.24714
-0.26541
-0.24951
-0.24136
-0.23598
-0.25262
-0.25120
-0.22565
-0.22287
-0.24255
-0.24682
-0.23832
-0.24133
-0.24891
-0.25805
-0.24823
-0.22997
-0.23400
-0.25700
-0.24092
-0.21466
-0.22951
-0.25667
-0.25020
-0.23221
-0.23850
-0.26720
-0.25994
-0.23715
-0.24067
-0.26225
-0.27914
-0.27521
-0.25725
-0.27568
-0.27833
-0.26524
-0.25606
-0.28343
-0.28960
-0.26888
-0.26795
-0.27836
-0.29552
-0.29136
-0.26463
-0.26536
-0.26956
-0.24931
-0.22028
-0.26071
-0.29283
-0.25408
-0.24547
-0.25504
-0.26955
-0.28019
-0.26946
-0.28364
-0.29193
-0.27358
-0.26385
-0.25185
-0.26519
-0.27581
-0.26170
-0.25622
-0.26630
-0.29078
-0.27493
-0.24515
-0.26729
-0.30086
-0.30031
-0.27292
-0.25497
-0.27447
-0.26891
-0.24533
-0.25115
-0.25582
-0.25587
-0.24971
-0.22373
-0.23328
-0.23674
-0.21270
-0.19218
-0.14527
-0.07182
0.04783
0.24047
0.47592
0.71826
0.97403
1.20106
1.33549
1.22759
0.93979
0.55236
0.13896
-0.23633
-0.43016
-0.39953
-0.30381
-0.26911
-0.26973
-0.26883
-0.28444
-0.31756
-0.32595
-0.30882
-0.29942
-0.33665
-0.35456
-0.32092
-0.31483
-0.33915
-0.35127
-0.33542
-0.32184
-0.33135
-0.34763
-0.34488
-0.32038
-0.31219
-0.32742
-0.31016
-0.28142
-0.28197
-0.31182
-0.31537
-0.29472
-0.29683
-0.31063
-0.31268
-0.30238
-0.28430
-0.31499
-0.31678
-0.29718
-0.29287
-0.29507
-0.30143
-0.28796
-0.27027
-0.28782
-0.29949
-0.27229
-0.24692
-0.24148
-0.25273
-0.23577
-0.19521
-0.19717
-0.21326
-0.18685
-0.15171
-0.14431
-0.14664
-0.15506
-0.12658
-0.10966
-0.12682
-0.11866
-0.10115
-0.09783
-0.10534
-0.10479
-0.08645
-0.09045
-0.10343
-0.11060
-0.11892
-0.11310
-0.13446
-0.16663
-0.16115
-0.16021
-0.17166
-0.20128
-0.20873
-0.19367
-0.22033
-0.25780
-0.25547
-0.24632
-0.24634
-0.27165
-0.27630
-0.24659
-0.23030
-0.26163
-0.26288
-0.26618
-0.24857
-0.26168
-0.28039
-0.26333
-0.24855
-0.24915
-0.26383
-0.24847
-0.23318
-0.22816
-0.25227
-0.24262
-0.22737
-0.22130
-0.23637
-0.23977
-0.23676
-0.21849
-0.22304
-0.18352
-0.12681
-0.11062
-0.10054
-0.09041
-0.02178
0.07953
0.16259
0.23236
0.33173
0.44842
0.54592
0.61404
0.72737
0.83682
0.93484
1.00317
1.01477
0.98918
0.94423
0.90746
0.85719
0.79116
0.67091
0.50600
0.35272
0.24591
0.18456
0.10357
0.06216
0.06706
0.05154
0.02524
0.07455
0.20541
0.32884
0.30578
0.04872
-0.22440
-0.35085
-0.40274
-0.43485
-0.45435
-0.46381
-0.48360
-0.52408
-0.53652
-0.54208
-0.54434
-0.56510
-0.56798
-0.55084
-0.55207
-0.59358
-0.60680
-0.59712
-0.59611
-0.60479
-0.63167
-0.63046
-0.60937
-0.62603
-0.66081
-0.66880
-0.64271
-0.67591
-0.71112
-0.72220
-0.72088
-0.71984
-0.74052
-0.73368
-0.71312
-0.71858
-0.75950
-0.75920
-0.72304
-0.71380
-0.71322
-0.71146
-0.68606
-0.66419
-0.66013
-0.63982
-0.59789
-0.55923
