-0.84346
-1.04134
-0.97164
-1.00893
-0.98865
-1.01215
-0.97886
-0.97692
-0.97041
-0.98625
-1.01041
-1.02366
-1.03594
-1.03517
-1.02638
-1.01545
-0.99737
-0.98755
-0.99691
-1.00279
-1.01481
-1.00208
-1.00570
-1.01741
-1.00529
-0.99130
-1.00021
-1.01164
-1.00473
-1.00207
-1.00075
-0.98279
-0.97983
-0.94763
-0.95192
-0.94379
-0.94343
-0.94459
-0.94151
-0.91246
-0.89815
-0.87168
-0.86282
-0.85989
-0.84573
-0.85172
-0.83487
-0.80925
-0.77487
-0.73811
-0.70386
-0.67822
-0.66709
-0.66011
-0.63235
-0.60813
-0.57536
-0.52998
-0.50765
-0.47692
-0.46164
-0.44767
-0.44351
-0.42731
-0.41025
-0.37228
-0.36780
-0.35551
-0.36595
-0.40427
-0.44055
-0.47285
-0.51415
-0.54895
-0.57160
-0.61876
-0.66259
-0.73147
-0.77678
-0.82410
-0.84580
-0.85888
-0.87538
-0.86608
-0.87079
-0.89605
-0.92055
-0.93515
-0.94993
-0.93424
-0.93015
-0.92548
-0.93370
-0.93605
-0.93878
-0.94249
-0.94754
-0.96145
-0.94070
-0.91504
-0.90959
-0.91754
-0.92463
-0.94190
-0.92890
-0.91003
-0.90350
-0.89893
-0.87682
-0.87028
-0.87309
-0.88370
-0.90148
-0.90636
-0.89992
-0.87163
-0.85180
-0.84652
-0.85322
-0.86857
-0.88650
-0.89590
-0.89218
-0.88273
-0.87455
-0.86381
-0.87280
-0.89018
-0.90245
-0.92997
-0.92142
-0.91212
-0.88869
-0.88654
-0.89661
-0.89624
-0.90631
-0.91927
-0.92437
-0.92109
-0.92204
-0.90431
-0.90607
-0.92196
-0.93787
-0.94560
-0.95764
-0.95535
-0.94396
-0.93173
-0.91117
-0.91792
-0.91633
-0.92256
-0.93765
-0.94074
-0.92283
-0.91190
-0.90065
-0.89970
-0.90635
-0.90881
-0.91589
-0.91781
-0.88422
-0.85384
-0.81895
-0.79447
-0.77501
-0.76324
-0.74783
-0.70946
-0.64919
-0.60319
-0.56239
-0.55396
-0.59421
-0.60752
-0.63408
-0.66500
-0.71007
-0.76995
-0.84480
-0.89661
-0.91318
-0.92828
-0.94669
-0.94718
-0.95316
-0.96143
-0.95186
-0.93521
-0.94293
-0.94911
-0.95836
-0.97579
-0.97247
-0.97504
-0.95325
-0.95118
-0.93050
-0.95856
-0.96084
-0.94957
-0.96412
-0.97789
-1.00127
-1.00014
-0.93550
-0.76124
-0.48222
-0.09025
0.42117
0.87546
1.14052
1.20085
1.03740
0.66193
0.00899
-0.68753
-1.06400
-1.05237
-0.87271
-0.72542
-0.69521
-0.75910
-0.84969
-0.91972
-0.95437
-0.96300
-0.95150
-0.93726
-0.93804
-0.94473
-0.95366
-0.96500
-0.97238
-0.97887
-0.98308
-0.98192
-0.97342
-0.96730
-0.97283
-0.97650
-0.97795
-0.99820
-1.00966
-0.97516
-0.96726
-0.95950
-0.94548
-0.94801
-0.96865
-0.97154
-0.95294
-0.95989
-0.94056
-0.92879
-0.91042
-0.90248
-0.90408
-0.91269
-0.91376
-0.89404
-0.88768
-0.87426
-0.83612
-0.82142
-0.81393
-0.80972
-0.80861
-0.79565
-0.77409
-0.74762
-0.70160
-0.66377
-0.64841
-0.65279
-0.63759
-0.59103
-0.55462
-0.51217
-0.48075
-0.44122
-0.40868
-0.39976
-0.39463
-0.38140
-0.37224
-0.35470
-0.33737
-0.30679
-0.32446
-0.36532
-0.38706
-0.42301
-0.45988
-0.50764
-0.53409
-0.56265
-0.59357
-0.63048
-0.68104
-0.72435
-0.75670
-0.78909
-0.80537
-0.80207
-0.81884
-0.82789
-0.85108
-0.87849
-0.88959
-0.89497
-0.90368
-0.90243
-0.89887
-0.90001
-0.90482
-0.91063
-0.91663
-0.92906
-0.91517
-0.89548
-0.87964
-0.86352
-0.87358
-0.88139
-0.89393
-0.87371
-0.85904
-0.85740
-0.85280
-0.85470
-0.85156
-0.85611
-0.85494
-0.81642
-0.71188
-0.53164
-0.31355
-0.08683
0.14770
0.42349
0.70274
1.01441
1.30591
1.55808
1.75010
1.86243
1.91219
1.89451
1.83402
1.73452
1.60272
1.51682
1.53710
1.55760
1.54079
1.45725
1.27990
1.08726
0.84307
0.55185
0.12472
-0.38744
-0.81703
-1.01955
-1.06337
-1.04910
-1.06245
-1.11883
-1.19880
-1.25392
-1.26999
-1.28080
-1.30846
-1.33296
-1.36456
-1.38578
-1.41193
-1.41331
-1.43405
-1.43760
-1.44708
-1.48407
-1.50430
-1.53804
-1.54538
-1.55332
-1.56524
-1.56911
-1.57216
-1.58306
-1.58695
-1.59729
-1.61720
-1.62403
-1.63735
-1.62956
-1.60821
-1.62136
-1.60658
-1.61405
-1.63879
-1.67797
-1.71697
-1.74514
-1.76445
-1.81866
-1.89794
-1.97175
-2.07474
-2.16381
-2.23037
-2.26231
-2.29395
-2.30301
-2.30993
-2.31369
-2.29483
-2.28859
-2.26413
-2.21397
-2.15965
-2.12442
-2.07611
-2.01919
-1.98053
-1.89257
-1.81627
-1.72495
-1.62726
-1.54199
-1.48363
-1.43752
-1.40278
-1.35807
-1.31347
-1.28084
-1.23900
-1.22288
-1.19276
-1.19706
-1.21214
-1.23232
-1.22760
-1.22092
-1.21868
-1.19111
-1.17344
-1.20003
-1.19631
-1.20012
-1.20892
-1.21128
-1.20528
-1.19219
-1.17735
-1.16632
-1.16993
-1.16893
-1.17640
-1.16866
-1.17014
-1.14742
-1.15715
-1.14464
-1.15039
-1.15600
-1.14069
-1.14791
-1.15817
-1.13918
-1.12552
-1.12425
-1.12866
-1.12747
-1.13900
-1.14929
-1.14321
-1.12898
-1.11646
-1.09617
-1.09847
-1.10365
-1.11905
-1.13557
-1.13398
-1.12763
-1.10982
-1.09887
-1.10957
-1.13216
-1.12378
-1.11036
-1.11907
-1.13322
-1.11781
-1.10485
-1.09157
-1.09959
-1.09200
-1.10991
-1.12469
-1.12495
-1.10860
-1.09845
-1.07765
-1.08441
-1.08748
-1.08992
-1.09605
-1.09355
-1.09533
-1.07868
-1.08216
-1.07289
-1.08580
-1.07100
-1.07791
-1.08923
-1.08131
-1.07451
-1.06726
-1.05587
-1.04861
-1.05817
-1.06780
-1.08353
-1.08239
-1.07649
-1.07773
-1.06738
-1.05677
-1.05259
-1.05843
-1.07335
-1.06795
-1.07028
-1.06200
-1.04927
-1.04816
-1.05116
-1.05847
-1.05959
-1.06652
-1.07063
-1.07307
-1.05746
-1.03906
-1.04329
-1.04737
-1.06218
-1.06417
-1.07916
-1.07427
-1.06478
-1.04340
-1.03917
-1.04093
-1.04465
-1.05786
-1.05871
-1.05772
-1.05972
-1.05337
-1.03789
-1.04582
-1.03551
-1.04147
-1.04445
-1.04272
-1.04111
-1.01528
-1.00725
-1.01877
-1.02029
-1.03816
-1.05526
-1.06147
-1.02839
-1.03024
-1.02129
-1.02131
-1.01166
-1.02532
-1.02933
-1.03576
-1.03801
-1.02371
-1.02183
-0.99667
-0.99605
-1.00529
-1.02808
-1.04332
-1.04004
-1.02439
-1.01195
-1.00354
-0.99980
-1.01189
-1.01782
-1.03158
-1.04855
-1.04725
-1.04544
-1.01829
-1.00169
-1.01044
-1.01280
-1.03139
-1.04820
-1.03444
-1.01677
-1.01315
-1.01142
-0.99995
-1.00030
-1.01477
-1.02185
-1.02187
-1.01588
-0.99665
-0.97846
-0.98819
-0.99479
-1.01642
-1.01594
-1.01540
-0.99994
-0.98217
-0.96028
-0.93274
-0.92421
-0.90660
-0.88930
-0.86462
-0.85735
-0.81454
-0.77766
-0.72066
-0.66619
-0.62481
-0.64471
-0.68615
-0.70362
-0.68525
-0.69687
-0.72370
-0.78967
-0.87774
-0.97002
-1.01495
-1.01684
-1.02192
-1.00987
-0.98061
-0.99400
-1.00582
-1.03217
-1.03301
-1.03095
-1.03293
-1.02251
-0.99715
-0.99242
-0.99880
-1.01653
-1.05327
-1.09033
-1.06054
-0.94733
-0.68224
-0.27089
0.25017
0.74787
1.08103
1.15415
0.94344
0.41386
-0.33582
-0.93123
-1.11340
-0.99054
-0.83043
-0.76796
-0.84408
-0.93216
-0.99639
-1.00465
-1.00626
-1.01035
-1.03066
-1.03277
-1.04545
-1.05447
-1.04832
-1.04930
-1.04430
-1.02574
-1.04019
-1.05986
-1.06835
-1.06011
-1.05318
-1.05277
-1.03246
-1.04165
-1.06868
-1.05911
-1.07477
-1.07403
-1.05941
-1.05884
-1.03492
-1.02579
-1.02966
-1.03634
-1.04255
-1.03700
-1.02190
-1.01070
-1.00080
-0.99041
-0.97954
-0.98201
-0.98548
-0.98807
-0.96909
-0.95392
-0.91676
-0.91018
-0.88993
-0.88392
-0.87866
-0.86178
-0.85616
-0.82531
-0.78717
-0.76629
-0.73216
-0.70841
-0.69464
-0.67773
-0.65890
-0.63173
-0.61045
-0.55631
-0.54245
-0.52919
-0.51375
-0.50939
-0.49761
-0.48145
-0.46315
-0.45342
-0.45349
-0.47848
-0.50967
-0.54590
-0.57663
-0.61087
-0.63140
-0.66720
-0.69100
-0.71893
-0.76308
-0.79124
-0.81482
-0.83304
-0.84830
-0.84868
-0.83595
-0.84064
-0.85173
-0.87107
-0.90154
-0.91428
-0.91390
-0.89503
-0.87286
-0.88099
-0.87594
-0.88824
-0.88353
-0.89558
-0.89866
-0.88104
-0.86494
-0.84759
-0.84431
-0.86056
-0.85419
-0.85800
-0.85831
-0.86587
-0.85502
-0.84814
-0.84401
-0.86451
-0.85454
-0.85079
-0.86819
-0.87829
-0.86500
-0.84593
-0.83541
-0.85234
-0.86886
-0.88819
-0.89704
-0.89162
-0.89311
-0.90004
-0.87541
-0.87023
-0.88984
-0.89968
-0.91650
-0.92696
-0.91519
-0.92344
-0.92793
-0.92094
-0.92050
-0.92498
-0.94793
-0.95067
-0.95103
-0.95141
-0.93785
-0.91458
-0.92571
-0.94129
-0.95445
-0.95602
-0.95329
-0.95237
-0.94961
-0.95148
-0.93528
-0.94010
-0.95324
-0.96267
-0.96107
-0.96524
-0.93987
-0.91815
-0.94124
-0.93551
-0.94754
-0.94678
-0.94916
-0.94176
-0.94807
-0.93380
-0.92226
-0.91830
-0.91146
-0.91962
-0.91279
-0.89473
-0.84785
-0.81837
-0.78795
-0.76712
-0.75891
-0.73126
-0.71332
-0.66218
-0.61048
-0.58208
-0.58491
-0.59644
-0.61302
-0.61433
-0.62732
-0.67781
-0.73460
-0.79682
-0.86663
-0.90952
-0.93736
-0.95202
-0.96156
-0.96570
-0.97400
-0.96566
-0.95355
-0.95799
-0.96077
-0.95990
-0.96681
-0.97162
-0.97637
-0.96960
-0.96796
-0.93792
-0.93867
-0.92750
-0.94139
-0.95525
-1.01274
-1.03774
-0.98484
-0.84797
-0.58997
-0.23108
0.21131
0.66296
1.01445
1.16336
1.16042
1.00801
0.62628
-0.00143
-0.68095
-1.05513
-1.06239
-0.86797
-0.72012
-0.70360
-0.74281
-0.84753
-0.91322
-0.92233
-0.94002
-0.94514
-0.94004
-0.93812
-0.93139
-0.92976
-0.94398
-0.95313
-0.96027
-0.98591
-0.99136
-0.98050
-0.97859
-0.96250
-0.97031
-0.97954
-0.96770
-0.98021
-0.98188
-0.96609
-0.96004
-0.93938
-0.94195
-0.94394
-0.95014
-0.95996
-0.96018
-0.94879
-0.94517
-0.92906
-0.90594
-0.91562
-0.91650
-0.91872
-0.93059
-0.91647
-0.89970
-0.87404
-0.85694
-0.85850
-0.85531
-0.83744
-0.82856
-0.81275
-0.79591
-0.77491
-0.74557
-0.71127
-0.70937
-0.68265
-0.66099
-0.64607
-0.62107
-0.59547
-0.56276
-0.52129
-0.49734
-0.48645
-0.47567
-0.47361
-0.45405
-0.41663
-0.39424
-0.36781
-0.36014
-0.34946
-0.35281
-0.36890
-0.39013
-0.40391
-0.42779
-0.44480
-0.48476
-0.52746
-0.58797
-0.63181
-0.67587
-0.70116
-0.73404
-0.75007
-0.77074
-0.78679
-0.81307
-0.83988
-0.85490
-0.87940
-0.88966
-0.89507
-0.86984
-0.88407
-0.88506
-0.89369
-0.91913
-0.91788
-0.92334
-0.91003
-0.90603
-0.89689
-0.90766
-0.91953
-0.92748
-0.92683
-0.92357
-0.90459
-0.88322
-0.87087
-0.86726
-0.89027
-0.89852
-0.91615
-0.88935
-0.89277
-0.88007
-0.87911
-0.86758
-0.86025
-0.88091
-0.89090
-0.90560
-0.91350
-0.88399
-0.87412
-0.87881
-0.88545
-0.90290
-0.90327
-0.90812
-0.92425
-0.90821
-0.91627
-0.90153
-0.91457
-0.93160
-0.92712
-0.94086
-0.93772
-0.92701
-0.92514
-0.91752
-0.90861
-0.92684
-0.94968
-0.95992
-0.96185
-0.95670
-0.94745
-0.93473
-0.94125
-0.93395
-0.94163
-0.95589
-0.96026
-0.95339
-0.95272
-0.95477
-0.94762
-0.95262
-0.94852
-0.96357
-0.98883
-0.97448
-0.96121
-0.95918
-0.95442
-0.94182
-0.94309
-0.93465
-0.93598
-0.92151
-0.91082
-0.87301
-0.83784
-0.81249
-0.79480
-0.78673
-0.74697
-0.70180
-0.64933
-0.64425
-0.64037
-0.64171
-0.65016
-0.66240
-0.66957
-0.72174
-0.76738
-0.84059
-0.91398
-0.94700
-0.96781
-0.97704
-1.00854
-1.01810
-1.01569
-1.01816
-1.00959
-1.01005
-1.01125
-1.01249
-1.01458
-1.03618
-1.03146
-1.03907
-1.04086
-1.01717
-1.00700
-0.99427
-0.99540
-1.01167
-1.03989
-1.06536
-1.09648
-1.03431
-0.86086
-0.57000
-0.13136
0.37969
0.82886
1.08111
1.08803
0.88221
0.39444
-0.29607
-0.91938
-1.18147
-1.09724
-0.90802
-0.80458
-0.81956
-0.89372
-0.96989
-1.01317
-1.02235
-1.02993
-1.04595
-1.05636
-1.05316
-1.04836
-1.04177
-1.04790
-1.05236
-1.05740
-1.07583
-1.07352
-1.06642
-1.07446
-1.07046
-1.06654
-1.06821
-1.06086
-1.06686
-1.08686
-1.07403
-1.07304
-1.05578
-1.03479
-1.04433
-1.05669
-1.05565
-1.06946
-1.06614
-1.05224
-1.02360
-1.01106
-0.99724
-1.00228
-1.01317
-1.01226
-0.99970
-0.97704
-0.95922
-0.92478
-0.90875
-0.90340
-0.89492
-0.87850
-0.88804
-0.87519
-0.82820
-0.77983
-0.74180
-0.71597
-0.70539
-0.69398
-0.68115
-0.65949
-0.63750
-0.60928
-0.56082
-0.54391
-0.51955
-0.51702
-0.50844
-0.50864
-0.49235
-0.47894
-0.46587
-0.46266
-0.48574
-0.52150
-0.55950
-0.60230
-0.63634
-0.66302
-0.70730
-0.73189
-0.77512
-0.82576
-0.86111
-0.90704
-0.92277
-0.94093
-0.95496
-0.97254
-0.98232
-1.00187
-1.01350
-1.04448
-1.06369
-1.05152
-1.03199
-1.03596
-1.03404
-1.05529
-1.05997
-1.06340
-1.07097
-1.06453
-1.05115
-1.03435
-1.02371
-1.00742
-1.02616
-1.04238
-1.02834
-1.04741
-1.02240
-1.01387
-1.00908
-0.98468
-0.98850
-1.00818
-1.01208
-1.00925
-1.01260
-0.99450
-0.97854
-0.97397
-0.96230
-0.98857
-0.99722
-1.00524
-1.01468
-1.00553
-0.99527
-0.97754
-1.00156
-1.00729
-1.02459
-1.02235
-1.00803
-1.01591
-1.00207
-0.99928
-1.00646
-1.01516
-1.02720
-1.03932
-1.05930
-1.04262
-1.03713
-1.03230
-1.02075
-1.03162
-1.03861
-1.03897
-1.05969
-1.07115
-1.05287
-1.04498
-1.03474
-1.02900
-1.03930
-1.05019
-1.06060
-1.07219
-1.06032
-1.04089
-1.03114
-1.01217
-0.99922
-0.98981
-0.98511
-0.96514
-0.94458
-0.92628
-0.89692
-0.87012
-0.84432
-0.80852
-0.76103
-0.72300
-0.70678
-0.69388
-0.71130
-0.70725
-0.70328
-0.73442
-0.79000
-0.85728
-0.94544
-1.02436
-1.04274
-1.05404
-1.05487
-1.04806
-1.06084
-1.08399
-1.07982
-1.08093
-1.06875
-1.06973
-1.07330
-1.08291
-1.09105
-1.09181
-1.09529
-1.10275
-1.07567
-1.06192
-1.05758
-1.05299
-1.06965
-1.11364
-1.11788
-1.02666
-0.79522
-0.39105
0.15850
0.70741
1.05886
1.16214
0.95839
0.40580
-0.40277
-1.03809
-1.23116
-1.08748
-0.90437
-0.82691
-0.88047
-0.98245
-1.03626
-1.07149
-1.06649
-1.03910
-1.03174
-1.04811
-1.05550
-1.09041
-1.08733
-1.08249
-1.08174
-1.06715
-1.05943
-1.06788
-1.06655
-1.08941
-1.09017
-1.08681
-1.07188
-1.06040
-1.04267
-1.06321
-1.06034
-1.04872
-1.05686
-1.05447
-1.05402
-1.02364
-1.02574
-1.00913
-0.99127
-0.99275
-0.98760
-0.98219
-0.96768
-0.94384
-0.92909
-0.90778
-0.90244
-0.89308
-0.91113
-0.90301
-0.85318
-0.82383
-0.79266
-0.76300
-0.72963
-0.71474
-0.69438
-0.64673
-0.62222
-0.58328
-0.54648
-0.52101
-0.48536
-0.46949
-0.45769
-0.43387
-0.42207
-0.41513
-0.40320
-0.38602
-0.38335
-0.41201
-0.46344
-0.49724
-0.54321
-0.60803
-0.62585
-0.65832
-0.70266
-0.75276
-0.79331
-0.83987
-0.85610
-0.89230
-0.90912
-0.91291
-0.92573
-0.93358
-0.95688
-0.96826
-0.97680
-0.99479
-0.99345
-0.98528
-0.97621
-0.95886
-0.97923
-0.98639
-0.99396
-0.98074
-0.98755
-0.96088
-0.94492
-0.92729
-0.93025
-0.94934
-0.95674
-0.94112
-0.94409
-0.93720
-0.91492
-0.91303
-0.91297
-0.92475
-0.93679
-0.92123
-0.93203
-0.91529
-0.89815
-0.88615
-0.89423
-0.90230
-0.90319
-0.91363
-0.92837
-0.92688
-0.91893
-0.91661
-0.91848
-0.91601
-0.92628
-0.92616
-0.93872
-0.95612
-0.95498
-0.93920
-0.91572
-0.94295
-0.94087
-0.94060
-0.95562
-0.96485
-0.95725
-0.94868
-0.93790
-0.93207
-0.95411
-0.96797
-0.96628
-0.97750
-0.98984
-0.96764
-0.96070
-0.94329
-0.95869
-0.95348
-0.97595
-0.98168
-0.97361
-0.96831
-0.95475
-0.94347
-0.93383
-0.93481
-0.95037
-0.95689
-0.95773
-0.94873
-0.90910
-0.88133
-0.85090
-0.84647
-0.83518
-0.81774
-0.82080
-0.79312
-0.74285
-0.70538
-0.63194
-0.59622
-0.58920
-0.60487
-0.63482
-0.65759
-0.64218
-0.64066
-0.67768
-0.75792
-0.84085
-0.91818
-0.96981
-1.01536
-1.00821
-0.97707
-0.96093
-0.97416
-0.97418
-0.99944
-1.01014
-1.01939
-1.01568
-1.00713
-1.00688
-0.98571
-0.98282
-0.98899
-0.99011
-0.99088
-0.98803
-0.99112
-0.98809
-0.98606
-1.00968
-1.04426
-1.04039
-0.96178
-0.76361
-0.40763
0.07310
0.61567
1.03801
1.20719
1.17211
0.90500
0.34099
-0.40639
-0.97479
-1.12372
-0.99030
-0.79669
-0.74300
-0.78900
-0.88664
-0.97342
-0.98920
-0.97731
-0.95976
-0.95850
-0.96035
-0.96703
-1.00545
-1.01369
-1.00729
-0.99571
-0.99802
-0.98922
-1.00319
-1.00162
-1.01408
-1.01801
-1.02136
-0.99609
-0.99382
-0.98936
-0.99555
-0.99617
-1.01756
-1.03015
-1.00964
-1.00477
-0.98554
-0.96185
-0.95401
-0.95434
-0.96891
-0.96745
-0.97184
-0.96209
-0.92676
-0.92073
-0.93017
-0.92807
-0.91110
-0.91121
-0.90128
-0.89743
-0.87643
-0.83671
-0.81013
-0.79378
-0.77514
-0.76480
-0.76533
-0.74120
-0.70330
-0.66785
-0.61500
-0.58838
-0.56988
-0.54434
-0.52860
-0.50656
-0.47876
-0.44409
-0.41852
-0.38995
-0.36041
-0.36715
-0.36773
-0.37742
-0.39397
-0.42273
-0.45028
-0.47441
-0.51518
-0.57357
-0.63202
-0.67221
-0.72832
-0.75322
-0.77456
-0.78328
-0.81506
-0.84290
-0.88335
-0.91819
-0.92753
-0.93327
-0.93888
-0.91952
-0.91901
-0.93069
-0.93501
-0.93509
-0.95321
-0.97051
-0.96342
-0.96077
-0.93625
-0.93751
-0.93356
-0.94048
-0.94911
-0.94062
-0.93760
-0.92848
-0.91907
-0.91517
-0.91329
-0.91886
-0.92967
-0.95131
-0.90659
-0.82653
-0.68673
-0.48328
-0.28606
-0.08898
0.13942
0.40459
0.70508
1.03007
1.31884
1.56890
1.77153
1.89565
1.93861
1.94409
1.91291
1.84164
1.73135
1.65097
1.60223
1.61124
1.58155
1.50949
1.34390
1.12455
0.86909
0.51381
-0.00439
-0.56678
-0.96485
-1.12751
-1.14261
-1.11175
-1.11759
-1.17296
-1.22378
-1.27584
-1.32493
-1.36120
-1.38996
-1.40444
-1.42068
-1.43508
-1.45646
-1.45868
-1.46859
-1.49123
-1.52503
-1.54281
-1.55936
-1.56055
-1.56693
-1.56976
-1.57024
-1.57194
-1.58771
-1.58808
-1.60126
-1.61493
-1.60672
-1.58370
-1.58626
-1.58155
-1.58469
-1.63145
-1.67316
-1.70182
-1.72305
-1.72810
-1.79734
-1.87586
-1.96742
-2.05281
-2.15120
-2.22094
-2.26319
-2.28611
-2.32439
-2.32386
-2.33971
-2.35921
-2.36750
-2.37523
-2.34432
-2.30158
-2.25949
-2.21236
-2.16829
-2.13776
-2.05892
-1.97157
-1.87887
-1.79530
-1.71477
-1.62054
-1.56726
-1.50060
-1.44452
-1.38765
-1.34797
-1.31195
-1.27171
-1.26473
-1.23575
-1.22964
-1.22041
-1.23372
-1.25261
-1.20950
-1.21378
-1.20959
-1.20006
-1.20941
-1.21230
-1.21479
-1.21832
-1.19962
-1.19941
-1.17735
-1.17033
-1.17278
-1.17690
-1.19069
-1.17922
-1.17786
-1.16321
-1.14401
-1.12115
-1.11975
-1.13496
-1.14226
-1.13840
-1.14073
-1.13209
-1.12834
-1.11276
-1.11095
-1.09954
-1.09852
-1.11495
-1.11198
-1.10758
-1.11198
-1.08783
-1.08088
-1.08231
-1.07461
-1.09035
-1.10305
-1.09503
-1.09007
-1.07114
-1.05621
-1.03741
-1.04770
-1.06135
-1.06618
-1.07493
-1.07822
-1.05018
-1.03627
-1.04082
-1.03853
-1.05155
-1.05449
-1.04350
-1.04812
-1.03493
-1.02498
-1.01239
-1.02444
-1.02046
-1.03187
-1.02153
-1.02862
-1.02479
-1.00822
-1.00065
-0.99812
-1.01153
-1.01219
-1.02811
-1.02617
-1.01668
-0.99485
-0.96895
-0.97002
-0.99152
-0.99737
-1.00806
-1.02216
-1.00672
-0.99481
-0.96816
-0.95930
-0.96002
-0.98468
-0.99294
-0.99588
-0.97646
-0.97748
-0.95756
-0.94905
-0.95601
-0.96448
-0.98361
-0.98236
-0.98994
-0.96917
-0.95919
-0.94881
-0.94882
-0.95149
-0.95999
-0.98141
-0.97858
-0.96004
-0.96498
-0.94656
-0.93850
-0.95501
-0.96000
-0.97045
-0.97405
-0.95799
-0.94601
-0.95042
-0.95167
-0.94512
-0.95253
-0.95780
-0.96829
-0.96320
-0.96004
-0.94410
-0.94026
-0.93222
-0.92565
-0.94118
-0.94624
-0.97132
-0.95887
-0.93943
-0.93925
-0.91442
-0.92642
-0.92769
-0.93149
-0.94188
-0.93567
-0.93814
-0.92193
-0.89776
-0.90229
-0.90755
-0.91593
-0.94327
-0.95931
-0.92524
-0.91927
-0.91656
-0.89466
-0.89345
-0.90002
-0.91359
-0.92177
-0.92477
-0.91855
-0.91961
-0.88980
-0.88268
-0.90317
-0.93177
-0.92194
-0.90395
-0.90170
-0.89304
-0.88345
-0.88575
-0.87661
-0.90243
-0.91478
-0.93442
-0.91725
-0.89200
-0.87207
-0.86580
-0.87470
-0.87743
-0.89072
-0.89206
-0.87982
-0.84828
-0.81606
-0.78274
-0.76717
-0.77737
-0.76820
-0.72536
-0.68640
-0.62572
-0.55264
-0.51563
-0.52513
-0.54144
-0.56995
-0.57740
-0.57377
-0.58579
-0.62614
-0.68578
-0.77678
-0.84399
-0.88082
-0.90539
-0.90551
-0.89592
-0.89529
-0.88428
-0.88325
-0.88696
-0.89554
-0.91348
-0.91445
-0.91444
-0.89048
-0.90091
-0.89655
-0.89291
-0.94911
-0.97812
-0.93892
-0.78649
-0.49691
-0.08220
0.43829
0.92937
1.25522
1.35070
1.23230
0.86970
0.23358
-0.49757
-0.95092
-0.98213
-0.81046
-0.68107
-0.66689
-0.75339
-0.84471
-0.90266
-0.92655
-0.89813
-0.89316
-0.89608
-0.90634
-0.92679
-0.94633
-0.94270
-0.93132
-0.92677
-0.90752
-0.93406
-0.93162
-0.95509
-0.97867
-0.95548
-0.95154
-0.93390
-0.92719
-0.92598
-0.94028
-0.96485
-0.97553
-0.95359
-0.94510
-0.93318
-0.92225
-0.92626
-0.92160
-0.93814
-0.93931
-0.93569
-0.91842
-0.90426
-0.88386
-0.87241
-0.87252
-0.86043
-0.87668
-0.86638
-0.84686
-0.81857
-0.79300
-0.77009
-0.76720
-0.75935
-0.75800
-0.75107
-0.72090
-0.68069
-0.64651
-0.61214
-0.59459
-0.57227
-0.56708
-0.55123
-0.54070
-0.50753
-0.47637
-0.46271
-0.43003
-0.41198
-0.41378
-0.40905
-0.39695
-0.36734
-0.34432
-0.33731
-0.32408
-0.32783
-0.34563
-0.37511
-0.40845
-0.44413
-0.46279
-0.49051
-0.51332
-0.54294
-0.58985
-0.62403
-0.65880
-0.70419
-0.72397
-0.72827
-0.72988
-0.74284
-0.77235
-0.78452
-0.80666
-0.80536
-0.79567
-0.80430
-0.79425
-0.78379
-0.79236
-0.79131
-0.79747
-0.81454
-0.81205
-0.79061
-0.77981
-0.77104
-0.77565
-0.77162
-0.78953
-0.78336
-0.79020
-0.77632
-0.76771
-0.75729
-0.76644
-0.77285
-0.77710
-0.78957
-0.79728
-0.80379
-0.78863
-0.77651
-0.77956
-0.78490
-0.79519
-0.81604
-0.82655
-0.83602
-0.81658
-0.79813
-0.79123
-0.80187
-0.83433
-0.84661
-0.84823
-0.84615
-0.84167
-0.83171
-0.82024
-0.82618
-0.84449
-0.88134
-0.87933
-0.89006
-0.89206
-0.90059
-0.87825
-0.87934
-0.86971
-0.88393
-0.89988
-0.90328
-0.90505
-0.90595
-0.89321
-0.87287
-0.87678
-0.87996
-0.89180
-0.90672
-0.91952
-0.90253
-0.87727
-0.88371
-0.87631
-0.88113
-0.89289
-0.90707
-0.92271
-0.90450
-0.88886
-0.87927
-0.88677
-0.88893
-0.88238
-0.89084
-0.88625
-0.88550
-0.83541
-0.80640
-0.76718
-0.75332
-0.73569
-0.72206
-0.71308
-0.69538
-0.64475
-0.57082
-0.52105
-0.49829
-0.53671
-0.56535
-0.56962
-0.57827
-0.58424
-0.59513
-0.62386
-0.70430
-0.77276
-0.85361
-0.89380
-0.90262
-0.91069
-0.90013
-0.89902
-0.88952
-0.90627
-0.93797
-0.94294
-0.94213
-0.94313
-0.92740
-0.92047
-0.90772
-0.90970
-0.90680
-0.91259
-0.93208
-0.94673
-0.97754
-0.97028
-0.89439
-0.71252
-0.38146
0.10303
0.63559
1.07646
1.28484
1.26698
1.02900
0.50294
-0.23698
-0.83951
-1.06440
-0.95293
-0.75995
-0.66104
-0.69155
-0.76856
-0.84875
-0.88913
-0.90912
-0.91814
-0.90411
-0.91999
-0.90847
-0.89283
-0.90190
-0.91618
-0.93215
-0.93930
-0.93645
-0.95233
-0.93872
-0.92525
-0.90030
-0.90706
-0.92238
-0.92763
-0.94371
-0.94016
-0.93173
-0.91096
-0.90774
-0.88953
-0.90289
-0.91678
-0.92161
-0.92217
-0.93792
-0.90226
-0.87008
-0.85960
-0.85551
-0.85340
-0.85465
-0.85199
-0.85802
-0.82529
-0.81505
-0.79003
-0.76781
-0.76250
-0.74480
-0.73499
-0.72036
-0.69491
-0.66760
-0.62598
-0.57873
-0.55832
-0.53840
-0.53406
-0.51414
-0.48408
-0.44290
-0.39184
-0.36307
-0.33923
-0.33967
-0.33193
-0.32200
-0.32694
-0.30722
-0.30256
-0.30574
-0.32102
-0.36175
-0.40666
-0.43497
-0.48576
-0.51872
-0.55027
-0.59457
-0.61886
-0.66657
-0.71174
-0.74328
-0.77861
-0.78927
-0.80530
-0.80212
-0.82038
-0.84292
-0.85559
-0.88299
-0.86383
-0.88448
-0.87610
-0.85978
-0.85405
-0.86352
-0.86096
-0.85640
-0.88155
-0.90948
-0.89480
-0.86707
-0.84715
-0.84446
-0.83530
-0.85948
-0.86786
-0.87870
-0.88212
-0.85181
-0.84327
-0.82853
-0.83906
-0.83548
-0.84964
-0.86224
-0.87955
-0.85496
-0.84615
-0.83778
-0.82917
-0.84204
-0.85267
-0.86501
-0.87035
-0.87173
-0.84727
-0.83923
-0.83925
-0.85541
-0.88708
-0.89564
-0.89037
-0.89957
-0.88863
-0.86957
-0.86265
-0.88108
-0.89492
-0.90291
-0.90911
-0.91380
-0.89565
-0.88403
-0.87232
-0.88108
-0.89601
-0.89139
-0.90890
-0.90804
-0.90555
-0.87334
-0.88211
-0.88930
-0.90408
-0.91608
-0.91106
-0.91622
-0.91621
-0.90374
-0.88259
-0.85673
-0.84100
-0.82660
-0.81897
-0.80590
-0.78914
-0.76028
-0.72903
-0.69407
-0.62589
-0.58691
-0.56644
-0.57164
-0.59043
-0.58831
-0.57119
-0.57206
-0.60504
-0.68524
-0.77488
-0.86024
-0.91443
-0.95029
-0.93231
-0.92453
-0.91657
-0.92117
-0.93577
-0.95449
-0.96945
-0.97734
-0.95189
-0.94638
-0.94053
-0.93281
-0.94827
-0.96780
-0.96392
-0.97142
-0.98288
-0.97162
-0.98169
-1.01080
-1.00043
-0.91131
-0.72804
-0.41951
0.06065
0.60192
1.03443
1.26221
1.26757
1.02891
0.56256
-0.15158
-0.82731
-1.13009
-1.05355
-0.84252
-0.70357
-0.72420
-0.82706
-0.91121
-0.97300
-0.98482
-0.95488
-0.94749
-0.94482
-0.96587
-0.96922
-0.98809
-1.00684
-1.01162
-0.99206
-0.97603
-0.96430
-0.97703
-0.98045
-0.99850
-1.00738
-1.02074
-1.01779
-0.99139
-0.97691
-0.98630
-0.99088
-0.99061
-0.99759
-0.99857
-1.00658
-0.99013
-0.96630
-0.97739
-0.97846
-0.96995
-0.97685
-0.96856
-0.97221
-0.95474
-0.90561
-0.88014
-0.86794
-0.86435
-0.88250
-0.86846
-0.86621
-0.84246
-0.81090
-0.77576
-0.75342
-0.75056
-0.72011
-0.69917
-0.66497
-0.63457
-0.58505
-0.54530
-0.52935
-0.51114
-0.48093
-0.47344
-0.46124
-0.44049
-0.40671
-0.39301
-0.36599
-0.37000
-0.38130
-0.41182
-0.44800
-0.47706
-0.49173
-0.53234
-0.56360
-0.59408
-0.65366
-0.70372
-0.75519
-0.79128
-0.82173
-0.83794
-0.84850
-0.86980
-0.89540
-0.93153
-0.94998
-0.95479
-0.96967
-0.97108
-0.95309
-0.95403
-0.95492
-0.96153
-0.97717
-1.00561
-0.99475
-0.99275
-0.98418
-0.95545
-0.96915
-0.96495
-0.97262
-0.97856
-0.98003
-0.98196
-0.95189
-0.92548
-0.92230
-0.92121
-0.93047
-0.94957
-0.94269
-0.94334
-0.93978
-0.93480
-0.91735
-0.92139
-0.92948
-0.93621
-0.94377
-0.95504
-0.95032
-0.93423
-0.93841
-0.92330
-0.93814
-0.95231
-0.95422
-0.96776
-0.96511
-0.96778
-0.96907
-0.95266
-0.95875
-0.97076
-0.98624
-0.99423
-0.98965
-0.98038
-0.97445
-0.96145
-0.97579
-0.98547
-0.99355
-0.98662
-0.99790
-0.99241
-0.98915
-0.99097
-0.98528
-0.98790
-1.00643
-1.01097
-0.99463
-0.98769
-0.95133
-0.90893
-0.87387
-0.84978
-0.84864
-0.83007
-0.81186
-0.77114
-0.70307
-0.65897
-0.63851
-0.64870
-0.68018
-0.68643
-0.69913
-0.73965
-0.79790
-0.86647
-0.91980
-0.96353
-0.99945
-1.01884
-1.04027
-1.04157
-1.02814
-1.03598
-1.03323
-1.01800
-1.03322
-1.05058
-1.05336
-1.07350
-1.05932
-1.06380
-1.05072
-1.03603
-1.03271
-1.04515
-1.05600
-1.05486
-1.05728
-1.06469
-1.08014
-1.07492
-1.02917
-0.88966
-0.61839
-0.21372
0.29733
0.77615
1.09411
1.19097
1.07028
0.68088
0.02241
-0.70641
-1.14323
-1.16751
-0.96792
-0.78178
-0.75008
-0.83542
-0.92693
-0.99199
-1.02581
-1.02199
-1.01482
-1.00247
-0.99685
-1.00178
-1.01801
-1.03612
-1.03775
-1.03521
-1.03345
-1.01947
-1.01975
-1.01262
-1.01828
-1.02352
-1.04151
-1.04578
-1.05006
-1.02698
-1.01620
-0.99267
-0.98713
-0.99718
-1.01517
-1.02948
-1.02957
-1.01736
-0.98202
-0.98189
-0.97657
-0.97955
-0.97844
-0.97819
-0.96760
-0.96911
-0.95782
-0.92435
-0.91950
-0.90801
-0.91182
-0.91159
-0.89041
-0.87141
-0.84393
-0.82076
-0.77920
-0.75938
-0.75467
-0.74165
-0.71404
-0.69078
-0.65554
-0.62122
-0.57682
-0.53060
-0.51694
-0.49629
-0.49028
-0.47315
-0.43842
-0.41179
-0.37574
-0.35057
-0.33150
-0.34487
-0.34804
-0.36003
-0.36379
-0.38863
-0.39670
-0.40957
-0.46145
-0.50051
-0.55118
-0.60813
-0.64840
-0.68539
-0.71614
-0.73603
-0.76768
-0.78209
-0.81607
-0.86238
-0.89218
-0.90057
-0.88335
-0.89000
-0.89936
-0.90413
-0.91991
-0.93334
-0.93882
-0.93435
-0.94090
-0.95235
-0.92920
-0.92998
-0.92906
-0.94035
-0.95068
-0.94103
-0.92299
-0.90949
-0.89799
-0.88548
-0.88777
-0.89413
-0.89813
-0.90215
-0.88931
-0.88475
-0.86648
-0.86486
-0.85853
-0.85884
-0.87779
-0.88744
-0.88696
-0.88217
-0.86238
-0.84508
-0.84184
-0.85006
-0.85795
-0.87717
-0.88256
-0.87611
-0.87899
-0.87393
-0.86522
-0.88898
-0.89495
-0.89169
-0.90008
-0.90283
-0.88891
-0.89552
-0.88326
-0.89527
-0.89500
-0.89181
-0.90670
-0.92604
-0.91278
-0.89703
-0.88637
-0.88879
-0.90636
-0.90944
-0.91085
-0.93340
-0.91538
-0.90934
-0.89099
-0.88787
-0.90586
-0.90347
-0.92082
-0.92452
-0.91970
-0.91520
-0.89421
-0.88761
-0.88592
-0.89358
-0.90862
-0.90054
-0.88066
-0.83530
-0.79829
-0.77548
-0.76344
-0.74822
-0.73321
-0.71864
-0.67114
-0.61151
-0.56053
-0.54313
-0.54971
-0.57799
-0.59180
-0.59607
-0.62906
-0.65953
-0.72892
-0.79404
-0.86348
-0.91218
-0.95233
-0.95199
-0.96087
-0.96088
-0.94367
-0.94897
-0.94140
-0.93525
-0.95252
-0.97234
-0.97495
-0.97488
-0.96366
-0.95964
-0.96011
-0.94771
-0.93549
-0.95465
-0.96261
-0.96042
-1.00280
-1.00441
-0.95295
-0.81547
-0.52920
-0.10312
0.43348
0.90500
1.18122
1.22955
1.05830
0.65138
-0.05516
-0.73822
-1.06690
-1.01028
-0.83683
-0.71495
-0.71449
-0.80150
-0.87375
-0.93407
-0.94029
-0.95207
-0.95425
-0.95803
-0.96051
-0.95433
-0.96869
-0.97921
-0.98644
-0.98011
-0.97837
-0.98278
-0.97976
-0.97437
-0.94316
-0.96090
-0.98102
-0.97444
-0.98652
-0.98763
-0.98228
-0.97168
-0.94933
-0.94732
-0.95623
-0.95192
-0.96275
-0.96654
-0.95607
-0.94317
-0.92893
-0.90033
-0.90528
-0.91930
-0.91576
-0.90825
-0.90487
-0.87884
-0.84016
-0.81080
-0.78510
-0.77605
-0.79634
-0.76887
-0.73958
-0.72655
-0.69295
-0.63923
-0.60376
-0.59867
-0.56704
-0.54800
-0.52061
-0.49839
-0.44703
-0.39691
-0.36582
-0.35534
-0.34724
-0.34284
-0.32759
-0.34106
-0.31015
-0.29882
-0.31102
-0.33898
-0.38225
-0.43898
-0.47633
-0.52172
-0.57997
-0.61971
-0.63908
-0.67469
-0.71354
-0.74426
-0.79592
-0.82006
-0.84142
-0.84454
-0.84363
-0.85559
-0.87793
-0.90038
-0.90659
-0.92617
-0.93577
-0.92908
-0.91510
-0.89373
-0.90030
-0.90183
-0.91352
-0.93048
-0.92946
-0.92458
-0.89517
-0.90309
-0.90768
-0.86968
-0.87597
-0.88402
-0.90648
-0.90963
-0.89712
-0.87844
-0.81980
-0.71365
-0.55889
-0.34532
-0.12634
0.13408
0.39775
0.70913
1.03167
1.35060
1.61371
1.79429
1.90463
1.94643
1.95343
1.93976
1.88295
1.76630
1.65595
1.59743
1.59928
1.56728
1.46700
1.30535
1.07055
0.79288
0.39125
-0.15253
-0.66274
-0.99899
-1.09880
-1.10480
-1.07005
-1.07503
-1.11882
-1.20166
-1.26485
-1.31235
-1.33053
-1.33759
-1.34902
-1.37973
-1.37600
-1.38232
-1.40601
-1.43860
-1.46060
-1.45662
-1.44400
-1.43392
-1.41638
-1.41343
-1.42130
-1.43067
-1.44798
-1.42432
-1.42140
-1.39440
-1.37831
-1.39971
-1.43840
-1.48673
-1.51894
-1.54284
-1.60469
-1.67711
-1.75954
-1.86015
-1.95149
-2.05642
-2.12456
-2.14838
-2.17467
-2.19209
-2.23032
-2.23537
-2.26132
-2.30479
-2.34337
-2.36062
-2.36099
-2.35278
-2.34824
-2.33027
-2.30804
-2.29048
-2.24554
-2.20776
-2.16796
-2.10058
-2.02833
-1.96392
-1.88802
-1.81227
-1.73443
-1.65888
-1.61009
-1.51614
-1.43951
-1.38013
-1.33110
-1.28837
-1.24912
-1.24814
-1.23442
-1.22515
-1.20878
-1.19169
-1.18420
-1.18531
-1.19517
-1.20056
-1.20746
-1.21717
-1.20197
-1.21328
-1.19364
-1.16984
-1.18255
-1.19663
-1.20945
-1.21181
-1.18405
-1.17801
-1.15740
-1.13690
-1.13931
-1.16197
-1.15739
-1.16501
-1.14912
-1.13525
-1.12565
-1.11506
-1.09591
-1.09895
-1.10848
-1.11238
-1.12112
-1.11678
-1.09102
-1.08189
-1.08031
-1.08485
-1.08842
-1.09734
-1.10790
-1.09758
-1.07332
-1.06082
-1.06194
-1.06554
-1.07372
-1.09431
-1.08829
-1.08337
-1.07034
-1.05673
-1.05280
-1.04260
-1.05640
-1.05765
-1.07325
-1.07161
-1.04712
-1.04600
-1.04696
-1.03188
-1.02446
-1.03039
-1.04276
-1.04845
-1.04165
-1.02564
-1.03006
-1.00945
-1.01318
-1.03024
-1.03654
-1.04568
-1.04114
-1.03466
-1.01280
-0.99455
-0.98468
-1.00370
-1.01558
-1.03568
-1.02979
-1.02621
-1.01775
-0.99418
-0.99144
-0.97692
-0.99600
-1.01641
-1.03661
-1.02333
-1.00756
-0.99506
-0.96564
-0.96820
-0.98925
-1.00192
-0.98509
-0.99241
-0.97714
-0.96278
-0.95686
-0.95644
-0.96313
-0.96028
-0.97971
-0.97699
-0.97964
-0.97109
-0.94929
-0.94225
-0.94828
-0.95627
-0.96608
-0.96782
-0.96677
-0.93527
-0.93457
-0.93506
-0.93089
-0.95343
-0.95027
-0.96029
-0.97030
-0.94739
-0.93933
-0.91583
-0.91541
-0.92716
-0.91780
-0.93239
-0.94002
-0.93025
-0.92268
-0.93069
-0.90147
-0.90741
-0.91286
-0.92311
-0.92063
-0.92342
-0.92282
-0.90518
-0.89489
-0.89889
-0.87971
-0.89302
-0.90761
-0.91494
-0.91273
-0.89114
-0.89342
-0.87858
-0.88802
-0.89968
-0.90037
-0.90973
-0.90685
-0.90209
-0.89186
-0.86920
-0.87088
-0.88895
-0.89981
-0.89429
-0.90216
-0.88573
-0.88503
-0.86918
-0.87428
-0.87673
-0.89525
-0.88823
-0.88021
-0.88240
-0.84466
-0.83833
-0.81552
-0.80511
-0.78149
-0.75848
-0.73569
-0.73307
-0.70595
-0.66195
-0.58826
-0.52848
-0.50469
-0.53845
-0.56955
-0.56537
-0.54832
-0.53559
-0.53203
-0.58772
-0.67948
-0.76533
-0.83051
-0.88683
-0.88695
-0.87685
-0.86017
-0.85495
-0.85871
-0.89001
-0.89567
-0.91418
-0.90401
-0.88682
-0.87974
-0.86476
-0.88491
-0.89864
-0.90445
-0.90983
-0.94423
-0.95063
-0.87732
-0.72261
-0.43699
-0.02537
0.47153
0.94881
1.27771
1.36825
1.28244
0.97685
0.42478
-0.30733
-0.85982
-1.01663
-0.87748
-0.68787
-0.60988
-0.66750
-0.74322
-0.83653
-0.88622
-0.90609
-0.88756
-0.90181
-0.91480
-0.89218
-0.89556
-0.90056
-0.91243
-0.91696
-0.93161
-0.94308
-0.95699
-0.94690
-0.92991
-0.92790
-0.91559
-0.93141
-0.94719
-0.94321
-0.93751
-0.92570
-0.91490
-0.91512
-0.90591
-0.91055
-0.94090
-0.93504
-0.93826
-0.91825
-0.90206
-0.88093
-0.86673
-0.87976
-0.88212
-0.89044
-0.88267
-0.88347
-0.85716
-0.83047
-0.83128
-0.84391
-0.83914
-0.80924
-0.82336
-0.81214
-0.75799
-0.72578
-0.69066
-0.67622
-0.64605
-0.64606
-0.62166
-0.61077
-0.57321
-0.53618
-0.50879
-0.48370
-0.45072
-0.44546
-0.42976
-0.41175
-0.38709
-0.35127
-0.33182
-0.29733
-0.28437
-0.29539
-0.30017
-0.30821
-0.32812
-0.34196
-0.36641
-0.38900
-0.42527
-0.48117
-0.51591
-0.56162
-0.60467
-0.62655
-0.65059
-0.66584
-0.67758
-0.71655
-0.73713
-0.75772
-0.77721
-0.77885
-0.79048
-0.78711
-0.78084
-0.78914
-0.79148
-0.78235
-0.79696
-0.80046
-0.78981
-0.77773
-0.76615
-0.77275
-0.77685
-0.78430
-0.78171
-0.78278
-0.78113
-0.75437
-0.74114
-0.74323
-0.74865
-0.75653
-0.77433
-0.78219
-0.76721
-0.74240
-0.73057
-0.72362
-0.71768
-0.75215
-0.77500
-0.76518
-0.78946
-0.77463
-0.76288
-0.75461
-0.76607
-0.77694
-0.80012
-0.79122
-0.80525
-0.80386
-0.79759
-0.78815
-0.78423
-0.79982
-0.81846
-0.82592
-0.84574
-0.85598
-0.82819
-0.81380
-0.80530
-0.82332
-0.84406
-0.84354
-0.85807
-0.86060
-0.84433
-0.83808
-0.82702
-0.82950
-0.83369
-0.84019
-0.84445
-0.85541
-0.84955
-0.84382
-0.82803
-0.83386
-0.84168
-0.85422
-0.86516
-0.86240
-0.85763
-0.83899
-0.83835
-0.83945
-0.83286
-0.84510
-0.84641
-0.84077
-0.80800
-0.76930
-0.73629
-0.70952
-0.68620
-0.67586
-0.66391
-0.60094
-0.54886
-0.50623
-0.49342
-0.51020
-0.51365
-0.52172
-0.55060
-0.59885
-0.66701
-0.73752
-0.80568
-0.84717
-0.85008
-0.87918
-0.90788
-0.90763
-0.89497
-0.90045
-0.89851
-0.89798
-0.89904
-0.90465
-0.91273
-0.91904
-0.92968
-0.93446
-0.92199
-0.90264
-0.88704
-0.87882
-0.87457
-0.90115
-0.94029
-0.98695
-0.94738
-0.78296
-0.47369
-0.02093
0.53376
1.01918
1.28505
1.30494
1.07328
0.56781
-0.17873
-0.79862
-1.05179
-0.94986
-0.76344
-0.66797
-0.68547
-0.78080
-0.85534
-0.89187
-0.89278
-0.88627
-0.89756
-0.90638
-0.93952
-0.92978
-0.90629
-0.91447
-0.91129
-0.90106
-0.92794
-0.93639
-0.93433
-0.94537
-0.92137
-0.91701
-0.92579
-0.92827
-0.93890
-0.95036
-0.96780
-0.95689
-0.94087
-0.93415
-0.91480
-0.89806
-0.90529
-0.92549
-0.92910
-0.93099
-0.91551
-0.90608
-0.88710
-0.85763
-0.85329
-0.84870
-0.85774
-0.84622
-0.84446
-0.80773
-0.78448
-0.75816
-0.74972
-0.72073
-0.70899
-0.69025
-0.65726
-0.64593
-0.60535
-0.55825
-0.50068
-0.49196
-0.47075
-0.44807
-0.45264
-0.42941
-0.38326
-0.35002
-0.34904
-0.34140
-0.33811
-0.32680
-0.32806
-0.34755
-0.34783
-0.35314
-0.37663
-0.40587
-0.44774
-0.50908
-0.57577
-0.62259
-0.65623
-0.70430
-0.71234
-0.72882
-0.77665
-0.80860
-0.84915
-0.87807
-0.88844
-0.89358
-0.88701
-0.88572
-0.90377
-0.90736
-0.92034
-0.92850
-0.94317
-0.93772
-0.92531
-0.90719
-0.92710
-0.91742
-0.90761
-0.92173
-0.91163
-0.92815
-0.90666
-0.88904
-0.88266
-0.88866
-0.90774
-0.89533
-0.90911
-0.88094
-0.86560
-0.85695
-0.83821
-0.84346
-0.85792
-0.89107
-0.88286
-0.90374
-0.88472
-0.86922
-0.87478
-0.86633
-0.87810
-0.87522
-0.88746
-0.89578
-0.89441
-0.87830
-0.88870
-0.86729
-0.87960
-0.89674
-0.92855
-0.93171
-0.91964
-0.91430
-0.89598
-0.88156
-0.89291
-0.90152
-0.91141
-0.92663
-0.92999
-0.93371
-0.91977
-0.90714
-0.89557
-0.91001
-0.92430
-0.92676
-0.95409
-0.94421
-0.92048
-0.90319
-0.88994
-0.88904
-0.88089
-0.86928
-0.86208
-0.83287
-0.81607
-0.77977
-0.75992
-0.74664
-0.72114
-0.69341
-0.64373
-0.59840
-0.57590
-0.57899
-0.58092
-0.58894
-0.59210
-0.60373
-0.64380
-0.70680
-0.76684
-0.83398
-0.88990
-0.91459
-0.93526
-0.93862
-0.96005
-0.95761
-0.95758
-0.95605
-0.96294
-0.95708
-0.96587
-0.97290
-0.97613
-0.96950
-0.96899
-0.95546
-0.92611
-0.91743
-0.93914
-0.95164
-0.98694
-1.02034
-1.01985
-0.96655
-0.80656
-0.52961
-0.11922
0.38933
0.87525
1.17749
1.24493
1.09561
0.65691
-0.06626
-0.74477
-1.08284
-1.04429
-0.85308
-0.73868
-0.75720
-0.82966
-0.89501
-0.92625
-0.93539
-0.94724
-0.95522
-0.96085
-0.96509
-0.96919
-0.94694
-0.93687
-0.93590
-0.95117
-0.96201
-0.96791
-0.99293
-0.99323
-0.97396
-0.97309
-0.98299
-0.96326
-0.95322
-0.96395
-0.96763
-0.96248
-0.96044
-0.94018
-0.92965
-0.92022
-0.92027
-0.91886
-0.94061
-0.94729
-0.94082
-0.91297
-0.87521
-0.85919
-0.88422
-0.89062
-0.86907
-0.86484
-0.84688
-0.82467
-0.79554
-0.77132
-0.76227
-0.74958
-0.75242
-0.74154
-0.71944
-0.68767
-0.64701
-0.62047
-0.58064
-0.56605
-0.54059
-0.51938
-0.50117
-0.48027
-0.43106
-0.40825
-0.38146
-0.37239
-0.37542
-0.36170
-0.34744
-0.34342
-0.32073
-0.31426
-0.31635
-0.35042
-0.40579
-0.45735
-0.49191
-0.53603
-0.58380
-0.61614
-0.65190
-0.68075
-0.73159
-0.77347
-0.79369
-0.82716
-0.83677
-0.85893
-0.85251
-0.83959
-0.86604
-0.88697
-0.90367
-0.89715
-0.91249
-0.91685
-0.90117
-0.89518
-0.89957
-0.90287
-0.92469
-0.95042
-0.93462
-0.93920
-0.90650
-0.89259
-0.88341
-0.88267
-0.89721
-0.89989
-0.89180
-0.89566
-0.88224
-0.87026
-0.85344
-0.84097
-0.85046
-0.86513
-0.85566
-0.85590
-0.84852
-0.83159
-0.82242
-0.82786
-0.83504
-0.84697
-0.86184
-0.85832
-0.85931
-0.84479
-0.84170
-0.84545
-0.86158
-0.87660
-0.88583
-0.90930
-0.88798
-0.87995
-0.88848
-0.86277
-0.87299
-0.88465
-0.90015
-0.91081
-0.91801
-0.91283
-0.89234
-0.90033
-0.89735
-0.90217
-0.90838
-0.92954
-0.92759
-0.91242
-0.91173
-0.89709
-0.89646
-0.90314
-0.91087
-0.94494
-0.95873
-0.93285
-0.91986
-0.90882
-0.89483
-0.90017
-0.90879
-0.93410
-0.91152
-0.90927
-0.88743
-0.81496
-0.78401
-0.76047
-0.74371
-0.74274
-0.72778
-0.69932
-0.64969
-0.57759
-0.52677
-0.54166
-0.57011
-0.59000
-0.60297
-0.60862
-0.61997
-0.64247
-0.69990
-0.78126
-0.88140
-0.91561
-0.92004
-0.94907
-0.95304
-0.94149
-0.94544
-0.94476
-0.94140
-0.96159
-0.97246
-0.97538
-0.98053
-0.97625
-0.96000
-0.96146
-0.97271
-0.96466
-0.97346
-0.96854
-0.96293
-0.96898
-0.95570
-0.99407
-1.00513
-0.98278
-0.83197
-0.57277
-0.16116
0.37517
0.90562
1.25949
1.35961
1.23000
0.80735
0.11737
-0.62615
-1.04985
-1.05546
-0.84919
-0.70433
-0.68825
-0.75931
-0.87504
-0.94333
-0.96335
-0.96811
-0.95260
-0.93670
-0.94019
-0.95218
-0.95119
-0.97128
-0.98654
-0.98337
-0.96978
-0.95667
-0.94951
-0.93989
-0.95907
-0.96696
-0.97737
-0.98979
-0.96629
-0.96320
-0.95431
-0.93854
-0.94806
-0.95454
-0.95884
-0.95777
-0.95182
-0.94798
-0.93396
-0.93320
-0.92920
-0.92064
-0.92127
-0.92145
-0.89676
-0.89083
-0.85547
-0.84397
-0.82781
-0.82280
-0.83892
-0.83548
-0.80653
-0.76773
-0.74323
-0.70902
-0.67379
-0.64048
-0.62202
-0.61895
-0.58494
-0.55373
-0.51224
-0.48161
-0.42891
-0.40241
-0.38875
-0.37003
-0.35935
-0.33698
-0.30619
-0.27956
-0.26942
-0.27227
-0.26420
-0.30124
-0.33355
-0.36184
-0.38315
-0.42219
-0.46330
-0.50046
-0.54637
-0.59772
-0.64632
-0.69733
-0.72797
-0.74210
-0.76533
-0.77769
-0.79722
-0.81606
-0.83944
-0.86530
-0.88004
-0.86910
-0.86183
-0.86204
-0.86476
-0.87352
-0.88569
-0.89371
-0.89321
-0.90338
-0.87941
-0.86222
-0.85571
-0.85640
-0.87028
-0.89156
-0.88894
-0.87706
-0.86447
-0.83920
-0.83129
-0.83468
-0.83498
-0.83761
-0.87250
-0.87505
-0.85315
-0.83901
-0.82774
-0.82178
-0.82986
-0.84507
-0.84063
-0.86997
-0.87548
-0.86990
-0.84727
-0.84841
-0.84778
-0.85598
-0.86519
-0.87827
-0.87750
-0.87820
-0.86665
-0.84819
-0.86779
-0.86082
-0.88484
-0.88319
-0.88600
-0.87576
-0.87624
-0.87139
-0.87873
-0.89900
-0.89197
-0.90604
-0.91144
-0.90220
-0.89216
-0.87516
-0.87282
-0.88540
-0.88967
-0.90484
-0.91821
-0.92876
-0.89928
-0.88948
-0.88181
-0.87766
-0.88413
-0.89721
-0.90607
-0.90039
-0.88762
-0.85692
-0.85267
-0.84687
-0.82362
-0.81859
-0.80140
-0.78190
-0.76193
-0.72202
-0.68990
-0.65325
-0.60193
-0.57599
-0.55706
-0.55558
-0.57938
-0.57247
-0.55943
-0.56428
-0.61179
-0.67626
-0.78036
-0.86381
-0.91042
-0.92711
-0.91297
-0.89873
-0.90944
-0.92827
-0.93037
-0.94799
-0.95617
-0.95632
-0.94671
-0.94384
-0.92237
-0.94317
-0.95782
-0.96263
-0.97151
-0.97409
-0.94415
-0.92298
-0.91996
-0.94375
-0.98405
-1.02575
-0.97740
-0.81779
-0.51836
-0.05767
0.47930
0.94517
1.22702
1.24970
1.03824
0.53638
-0.21657
-0.88421
-1.13374
-1.03639
-0.82610
-0.71436
-0.73761
-0.84877
-0.91266
-0.94833
-0.94058
-0.92140
-0.93593
-0.94520
-0.96948
-0.98676
-0.99355
-0.98451
-0.97025
-0.95872
-0.97380
-0.99024
-1.00240
-1.01113
-1.00171
-0.98974
-0.98622
-0.97334
-0.95581
-0.97429
-0.97783
-1.01136
-1.00266
-0.98927
-0.98098
-0.95628
-0.93675
-0.94408
-0.94468
-0.96328
-0.96245
-0.95159
-0.93067
-0.90801
-0.87546
-0.85716
-0.85133
-0.87395
-0.87153
-0.84717
-0.83301
-0.80498
-0.78139
-0.74301
-0.71857
-0.70194
-0.67514
-0.66669
-0.62954
-0.57715
-0.53596
-0.48798
-0.47002
-0.46189
-0.44845
-0.42253
-0.40691
-0.39099
-0.35417
-0.32658
-0.30953
-0.32106
-0.32961
-0.35103
-0.37123
-0.40699
-0.42565
-0.46372
-0.50608
-0.56533
-0.62480
-0.66539
-0.72618
-0.76475
-0.78142
-0.81450
-0.82970
-0.85419
-0.87772
-0.90020
-0.92357
-0.92641
-0.92726
-0.92233
-0.90707
-0.92277
-0.93597
-0.94955
-0.95923
-0.97421
-0.96908
-0.94936
-0.94378
-0.93918
-0.93262
-0.95383
-0.97861
-0.96283
-0.95939
-0.93559
-0.94016
-0.94402
-0.93863
-0.94566
-0.94965
-0.92090
-0.91366
-0.92566
-0.89888
-0.89760
-0.89152
-0.88331
-0.91066
-0.91338
-0.92922
-0.92912
-0.89603
-0.89039
-0.88016
-0.89815
-0.89812
-0.92086
-0.92714
-0.93679
-0.92505
-0.92692
-0.91137
-0.91075
-0.93393
-0.94697
-0.95822
-0.96749
-0.96913
-0.94759
-0.91379
-0.91505
-0.92258
-0.93962
-0.94287
-0.95316
-0.96441
-0.96426
-0.96312
-0.94042
-0.94734
-0.95973
-0.98224
-0.97354
-0.96513
-0.94778
-0.92708
-0.89552
-0.88331
-0.86906
-0.85642
-0.85115
-0.83863
-0.80698
-0.77782
-0.71889
-0.65994
-0.61648
-0.60779
-0.61758
-0.63379
-0.64850
-0.65544
-0.65313
-0.69540
-0.77035
-0.83936
-0.92044
-0.96592
-0.98640
-0.97814
-0.97339
-0.96697
-0.98610
-1.00007
-1.00931
-1.02723
-1.03311
-1.01401
-0.99845
-0.98814
-0.98707
-1.00159
-1.02035
-1.00575
-1.01502
-1.01630
-1.00724
-0.98268
-1.00852
-1.03807
-1.01647
-0.96200
-0.77026
-0.46933
-0.02504
0.51159
0.94878
1.16983
1.19487
1.00254
0.54034
-0.15261
-0.83591
-1.15746
-1.10215
-0.89980
-0.76227
-0.76994
-0.85381
-0.95357
-1.00640
-1.02227
-1.02518
-1.00555
-1.00447
-1.02743
-1.03244
-1.05828
-1.06904
-1.05033
-1.02793
-1.02671
-1.02716
-1.02761
-1.03455
-1.04566
-1.05825
-1.04048
-1.02779
-1.01549
-0.99230
-1.00521
-1.01367
-1.03432
-1.02834
-1.03668
-1.03002
-0.99325
-0.98254
-0.98493
-0.98140
-1.00108
-0.99920
-0.98870
-0.97552
-0.95095
-0.92669
-0.91131
-0.90382
-0.91097
-0.90659
-0.90397
-0.87718
-0.85277
-0.82238
-0.80013
-0.79356
-0.77870
-0.77402
-0.75488
-0.72616
-0.68336
-0.63987
-0.61568
-0.57987
-0.57523
-0.54792
-0.51836
-0.49439
-0.44927
-0.40976
-0.38232
-0.37554
-0.37205
-0.34580
-0.35059
-0.35438
-0.34155
-0.33518
-0.34673
-0.37402
-0.41230
-0.47265
-0.52425
-0.56362
-0.61932
-0.64632
-0.69223
-0.72228
-0.74982
-0.80564
-0.84677
-0.86321
-0.89087
-0.90296
-0.89343
-0.89304
-0.90692
-0.92106
-0.94417
-0.96652
-0.97310
-0.97159
-0.95175
-0.94097
-0.94611
-0.95733
-0.97156
-0.96961
-0.97154
-0.98406
-0.97565
-0.93627
-0.92385
-0.93003
-0.93714
-0.94388
-0.96497
-0.95275
-0.92858
-0.92272
-0.91716
-0.90466
-0.92096
-0.93194
-0.91864
-0.90685
-0.91146
-0.88696
-0.89023
-0.88910
-0.87133
-0.88447
-0.89293
-0.90260
-0.90427
-0.88792
-0.88675
-0.88965
-0.89301
-0.90474
-0.93139
-0.93047
-0.92138
-0.92011
-0.90898
-0.89009
-0.88724
-0.90405
-0.92382
-0.94048
-0.94760
-0.93362
-0.93876
-0.92803
-0.91791
-0.91847
-0.92905
-0.94980
-0.95816
-0.93064
-0.93031
-0.91736
-0.93160
-0.93935
-0.94536
-0.95728
-0.95879
-0.94649
-0.96579
-0.95183
-0.93717
-0.92449
-0.92446
-0.92412
-0.95075
-0.95582
-0.94237
-0.92540
-0.91650
-0.90466
-0.90771
-0.92240
-0.92584
-0.92255
-0.89855
-0.87782
-0.82344
-0.78756
-0.76756
-0.78175
-0.76610
-0.73917
-0.70692
-0.63507
-0.59750
-0.54306
-0.53688
-0.56993
-0.59679
-0.61436
-0.63028
-0.65860
-0.70191
-0.77873
-0.84951
-0.89436
-0.93214
-0.95813
-0.96701
-0.95603
-0.95263
-0.95910
-0.94630
-0.93624
-0.94480
-0.95788
-0.96732
-0.96878
-0.95959
-0.94267
-0.94010
-0.93468
-0.95292
-0.94998
-0.94820
-0.95475
-0.98424
-1.00314
-0.97856
-0.85254
-0.57654
-0.13902
0.41343
0.92472
1.23231
1.29470
1.12170
0.67585
-0.02071
-0.72274
-1.05465
-1.01985
-0.82034
-0.69744
-0.68398
-0.76461
-0.84031
-0.91275
-0.92911
-0.93803
-0.93588
-0.93948
-0.92618
-0.91841
-0.93036
-0.93943
-0.94454
-0.95918
-0.95955
-0.97382
-0.95956
-0.93915
-0.93655
-0.95270
-0.95588
-0.95630
-0.97431
-0.98062
-0.95584
-0.95782
-0.93014
-0.92693
-0.92856
-0.94553
-0.95397
-0.97409
-0.95544
-0.93567
-0.91425
-0.89498
-0.88717
-0.88723
-0.88448
-0.88322
-0.87734
-0.85755
-0.82075
-0.80577
-0.79147
-0.77085
-0.77902
-0.76074
-0.72876
-0.68986
-0.66812
-0.62512
-0.58654
-0.55628
-0.54833
-0.53688
-0.50812
-0.46759
-0.42652
-0.38335
-0.35831
-0.34826
-0.33436
-0.31764
-0.30656
-0.28423
-0.27079
-0.25011
-0.23145
-0.26790
-0.30613
-0.32113
-0.37753
-0.42205
-0.44602
-0.47903
-0.51076
-0.55698
-0.60732
-0.65549
-0.70788
-0.74472
-0.75601
-0.76644
-0.78024
-0.79504
-0.80111
-0.83667
-0.85628
-0.86360
-0.88165
-0.87195
-0.85379
-0.85870
-0.84631
-0.87249
-0.87042
-0.86613
-0.87395
-0.86470
-0.85431
-0.83825
-0.83162
-0.83928
-0.84488
-0.85532
-0.85095
-0.85167
-0.83720
-0.81924
-0.81244
-0.80708
-0.81668
-0.82445
-0.83146
-0.82087
-0.80656
-0.79547
-0.78320
-0.78349
-0.79134
-0.80437
-0.82403
-0.83120
-0.83190
-0.80952
-0.81052
-0.79670
-0.82448
-0.85156
-0.84216
-0.86075
-0.85598
-0.85755
-0.84989
-0.84078
-0.85959
-0.85708
-0.87217
-0.87720
-0.86640
-0.87981
-0.86911
-0.85663
-0.85109
-0.86114
-0.88068
-0.88627
-0.88959
-0.88238
-0.87305
-0.86312
-0.85591
-0.86251
-0.86726
-0.88695
-0.90138
-0.89966
-0.90548
-0.88983
-0.86901
-0.86384
-0.88279
-0.89287
-0.89910
-0.89754
-0.89910
-0.90103
-0.87478
-0.85772
-0.86015
-0.85318
-0.85266
-0.84199
-0.81927
-0.76640
-0.73007
-0.73446
-0.70620
-0.67988
-0.62699
-0.57479
-0.53274
-0.52000
-0.52624
-0.53840
-0.54390
-0.55702
-0.60019
-0.65777
-0.73364
-0.79065
-0.86055
-0.88055
-0.89246
-0.90069
-0.90016
-0.92254
-0.93773
-0.93472
-0.93903
-0.93036
-0.93214
-0.94097
-0.93315
-0.94561
-0.95082
-0.94434
-0.92499
-0.92450
-0.92487
-0.92788
-0.92492
-0.93714
-0.94151
-0.97717
-1.01065
-0.99452
-0.87910
-0.64095
-0.28446
0.24902
0.77882
1.14162
1.29124
1.15857
0.72312
-0.01245
-0.74904
-1.09723
-1.05571
-0.85949
-0.71936
-0.71531
-0.79578
-0.86323
-0.92708
-0.95449
-0.95789
-0.97186
-0.96858
-0.95572
-0.95857
-0.95693
-0.95602
-0.97348
-0.96838
-0.97540
-0.99589
-0.96990
-0.96770
-0.96846
-0.95226
-0.96816
-0.96658
-0.98280
-0.98795
-0.98661
-0.96027
-0.95239
-0.94808
-0.94359
-0.93735
-0.94818
-0.95811
-0.94785
-0.93107
-0.91108
-0.91136
-0.90990
-0.90734
-0.89928
-0.90254
-0.88586
-0.87363
-0.84489
-0.80498
-0.79051
-0.78682
-0.78855
-0.77998
-0.76055
-0.71413
-0.66902
-0.63834
-0.59515
-0.57530
-0.55445
-0.53708
-0.51630
-0.48157
-0.44542
-0.40267
-0.35922
-0.33345
-0.32687
-0.34353
-0.33988
-0.32836
-0.32675
-0.34070
-0.36211
-0.37909
-0.43632
-0.49576
-0.55066
-0.60860
-0.66924
-0.68211
-0.71616
-0.73562
-0.76921
-0.80930
-0.83940
-0.86651
-0.87725
-0.88127
-0.89153
-0.89762
-0.89885
-0.92084
-0.93362
-0.95387
-0.95329
-0.94372
-0.92368
-0.91186
-0.92095
-0.91504
-0.92179
-0.94827
-0.92813
-0.90813
-0.91407
-0.90141
-0.88357
-0.88996
-0.90445
-0.90523
-0.90245
-0.89940
-0.89734
-0.87224
-0.87634
-0.86879
-0.86162
-0.87627
-0.88046
-0.88293
-0.88670
-0.87759
-0.87876
-0.87802
-0.88143
-0.89885
-0.88679
-0.90020
-0.91122
-0.90258
-0.89114
-0.86595
-0.88647
-0.90467
-0.92583
-0.93658
-0.93342
-0.92181
-0.92031
-0.90327
-0.89585
-0.92031
-0.91276
-0.92706
-0.94140
-0.93777
-0.91865
-0.90942
-0.91293
-0.90752
-0.92751
-0.92160
-0.93830
-0.93717
-0.93672
-0.92738
-0.91302
-0.90601
-0.89670
-0.85580
-0.85759
-0.82300
-0.79391
-0.77226
-0.74083
-0.71206
-0.67143
-0.63092
-0.59581
-0.54984
-0.55808
-0.56378
-0.55228
-0.54500
-0.55115
-0.59535
-0.65534
-0.71418
-0.78826
-0.84666
-0.89052
-0.89383
-0.90140
-0.90483
-0.91130
-0.92164
-0.93477
-0.92400
-0.91522
-0.91123
-0.91376
-0.91672
-0.93328
-0.95086
-0.94378
-0.92830
-0.93107
-0.92278
-0.90697
-0.91744
-0.90674
-0.93079
-0.94024
-0.98210
-0.98709
-0.95773
-0.82778
-0.60774
-0.26733
0.23328
0.74300
1.14377
1.34016
1.32861
1.07737
0.51038
-0.27342
-0.88496
-1.07642
-0.93232
-0.72662
-0.64495
-0.66944
-0.75432
-0.84437
-0.89163
-0.91190
-0.89543
-0.89816
-0.90830
-0.89989
-0.88444
-0.89158
-0.90382
-0.91482
-0.91667
-0.91622
-0.91620
-0.89757
-0.89310
-0.90354
-0.89725
-0.90229
-0.91645
-0.93511
-0.92818
-0.89850
-0.88955
-0.87791
-0.88393
-0.88721
-0.89891
-0.91268
-0.89604
-0.87589
-0.85847
-0.82955
-0.83214
-0.84171
-0.83827
-0.83460
-0.83153
-0.80423
-0.77016
-0.74487
-0.72874
-0.72819
-0.72169
-0.71934
-0.70825
-0.68585
-0.64793
-0.62137
-0.59221
-0.56433
-0.54716
-0.52669
-0.50577
-0.47872
-0.42692
-0.41022
-0.37899
-0.33412
-0.31916
-0.30501
-0.30697
-0.29776
-0.27012
-0.24572
-0.21082
-0.19844
-0.20910
-0.23201
-0.25070
-0.28781
-0.32450
-0.34370
-0.37693
-0.41641
-0.45370
-0.51153
-0.56222
-0.60921
-0.64149
-0.66435
-0.67995
-0.70479
-0.72427
-0.74515
-0.77853
-0.80895
-0.82418
-0.80723
-0.80165
-0.80023
-0.82810
-0.81600
-0.82184
-0.82620
-0.83114
-0.82412
-0.82245
-0.82402
-0.80447
-0.80798
-0.81321
-0.81849
-0.80743
-0.79149
-0.79022
-0.77367
-0.76153
-0.77403
-0.76961
-0.76735
-0.76978
-0.72581
-0.62289
-0.43190
-0.21263
0.02355
0.28502
0.55389
0.87584
1.20913
1.53426
1.80240
2.01036
2.12909
2.15103
2.12755
2.04105
1.94456
1.82219
1.77737
1.79604
1.82681
1.78911
1.62788
1.40751
1.11170
0.69286
0.18899
-0.38393
-0.80000
-0.97345
-0.98370
-0.97511
-0.98286
-1.04190
-1.12780
-1.18347
-1.21978
-1.20761
-1.23137
-1.26289
-1.30613
-1.32115
-1.33863
-1.34536
-1.34880
-1.36157
-1.36918
-1.39280
-1.41958
-1.44922
-1.46269
-1.47460
-1.48140
-1.48749
-1.49845
-1.50626
-1.52406
-1.53460
-1.54040
-1.55639
-1.55162
-1.53335
-1.52024
-1.52556
-1.51249
-1.54923
-1.60000
-1.64935
-1.68468
-1.71418
-1.74956
-1.83196
-1.92785
-2.03335
-2.13523
-2.20175
-2.24839
-2.26247
-2.26456
-2.25400
-2.26674
-2.27182
-2.25626
-2.22684
-2.18800
-2.12726
-2.04777
-1.96319
-1.90056
-1.83127
-1.73745
-1.65443
-1.58919
-1.49122
-1.42994
-1.33423
-1.27734
-1.23441
-1.21789
-1.20019
-1.16875
-1.13684
-1.11336
-1.10019
-1.09655
-1.09913
-1.10485
-1.11164
-1.11894
-1.11624
-1.10825
-1.08742
-1.08173
-1.08673
-1.09404
-1.11291
-1.12087
-1.13177
-1.12712
-1.09936
-1.07516
-1.07620
-1.08893
-1.09984
-1.09973
-1.09994
-1.07046
-1.05636
-1.04321
-1.03134
-1.05781
-1.05231
-1.06840
-1.07806
-1.05467
-1.05443
-1.04424
-1.04675
-1.03475
-1.04965
-1.06577
-1.06668
-1.06913
-1.06026
-1.05026
-1.03658
-1.02517
-1.03750
-1.05482
-1.05239
-1.03823
-1.04219
-1.01712
-1.01663
-1.02030
-1.02253
-1.04630
-1.04181
-1.04803
-1.05255
-1.02991
-1.01776
-1.01636
-1.00821
-1.01478
-1.03591
-1.04015
-1.03900
-1.03366
-1.01791
-0.99972
-0.98949
-1.01309
-1.02003
-1.03018
-1.02508
-1.02351
-1.01469
-1.00899
-0.99504
-1.01337
-1.03261
-1.02231
-1.02925
-1.02719
-1.00102
-0.98124
-0.98269
-0.99590
-1.02106
-1.03407
-1.02741
-1.02616
-1.00894
-1.00169
-1.00319
-0.98748
-0.98089
-1.00372
-1.00669
-1.01444
-1.00876
-0.99684
-0.98376
-0.97685
-0.99292
-0.98741
-0.97797
-0.99275
-0.99554
-0.99515
-0.97881
-0.96549
-0.97572
-0.97681
-0.99370
-0.99867
-1.00102
-0.99098
-0.97067
-0.96329
-0.94899
-0.96137
-0.98395
-0.98595
-0.99369
-0.97417
-0.96504
-0.94753
-0.95957
-0.96698
-0.98898
-0.99375
-0.98663
-0.97899
-0.97191
-0.96209
-0.94242
-0.95609
-0.96702
-0.98227
-0.97948
-0.96690
-0.94940
-0.94245
-0.95369
-0.94286
-0.96145
-0.96728
-0.96814
-0.97286
-0.97980
-0.96756
-0.95198
-0.93489
-0.93439
-0.94380
-0.98318
-0.97877
-0.96667
-0.93549
-0.91457
-0.92306
-0.91471
-0.93274
-0.94043
-0.95763
-0.95909
-0.94822
-0.93310
-0.92575
-0.91937
-0.92111
-0.92750
-0.93722
-0.93388
-0.92692
-0.92256
-0.89951
-0.89222
-0.89805
-0.90909
-0.92852
-0.95415
-0.95380
-0.93517
-0.91382
-0.91572
-0.91500
-0.92387
-0.91884
-0.91795
-0.89994
-0.86073
-0.82196
-0.79281
-0.77995
-0.77235
-0.77611
-0.75657
-0.72946
-0.68741
-0.61987
-0.57689
-0.56094
-0.56092
-0.60627
-0.59806
-0.60182
-0.60313
-0.61396
-0.66709
-0.71996
-0.82337
-0.89253
-0.94118
-0.95129
-0.96278
-0.95338
-0.93471
-0.91782
-0.93006
-0.94279
-0.95800
-0.94789
-0.95821
-0.95114
-0.93813
-0.93621
-0.94757
-0.98208
-1.01685
-0.97884
-0.80854
-0.48126
0.01954
0.58291
1.05413
1.29080
1.29943
1.07422
0.59836
-0.12470
-0.79510
-1.08163
-0.99186
-0.80039
-0.67645
-0.70628
-0.81488
-0.90149
-0.95527
-0.95718
-0.93234
-0.93130
-0.93496
-0.94777
-0.97445
-0.98474
-0.99506
-1.00454
-0.99086
-0.97886
-0.98471
-0.99227
-0.99795
-1.01279
-1.01045
-0.99805
-0.98478
-0.98458
-0.97559
-0.98722
-0.99689
-1.02263
-1.02782
-1.01868
-0.99185
-0.98616
-0.99174
-1.01439
-1.01427
-1.00101
-1.01642
-0.99894
-0.97727
-0.94726
-0.93817
-0.93649
-0.93509
-0.93029
-0.92886
-0.91134
-0.88532
-0.86111
-0.83701
-0.81735
-0.80013
-0.79614
-0.78983
-0.78501
-0.75998
-0.72943
-0.69199
-0.66420
-0.64507
-0.63009
-0.62723
-0.59196
-0.57119
-0.53435
-0.50489
-0.48699
-0.45847
-0.45151
-0.45237
-0.45230
-0.41956
-0.38900
-0.36889
-0.35739
-0.36522
-0.39496
-0.40699
-0.44812
-0.49147
-0.51322
-0.54096
-0.56327
-0.60698
-0.65170
-0.67603
-0.71436
-0.74333
-0.74687
-0.77421
-0.76419
-0.77375
-0.78451
-0.81265
-0.82246
-0.82559
-0.84575
-0.82736
-0.81714
-0.79919
-0.78870
-0.80337
-0.80514
-0.80617
-0.83010
-0.80347
-0.80013
-0.78245
-0.77221
-0.76845
-0.76850
-0.77586
-0.79734
-0.79076
-0.79540
-0.77940
-0.75772
-0.74808
-0.68902
-0.56635
-0.42141
-0.19740
0.04360
0.32353
0.63423
0.95279
1.26222
1.55323
1.79450
1.97826
2.12281
2.18917
2.19819
2.13578
2.01434
1.88676
1.78100
1.74401
1.77476
1.82153
1.78127
1.65129
1.41056
1.12501
0.78798
0.34389
-0.17684
-0.67454
-0.96970
-1.04554
-1.03616
-1.03421
-1.06387
-1.13484
-1.22592
-1.26474
-1.27515
-1.29390
-1.30161
-1.32879
-1.35523
-1.38001
-1.39338
-1.42540
-1.43021
-1.43885
-1.45346
-1.46307
-1.48342
-1.51586
-1.53846
-1.54896
-1.56630
-1.57763
-1.58526
-1.60822
-1.63596
-1.67037
-1.69586
-1.70875
-1.71964
-1.70386
-1.70044
-1.70953
-1.72979
-1.76122
-1.77179
-1.77811
-1.77103
-1.75776
-1.75737
-1.79462
-1.85419
-1.91004
-1.94816
-1.97771
-2.02931
-2.07624
-2.13067
-2.19098
-2.24611
-2.29635
-2.32779
-2.33824
-2.33373
-2.30946
-2.26283
-2.22858
-2.18747
-2.13196
-2.08325
-2.02204
-1.96398
-1.88694
-1.79524
-1.71479
-1.62975
-1.54367
-1.48076
-1.42929
-1.37799
-1.33670
-1.28333
-1.23803
-1.19869
-1.17165
-1.18203
-1.17814
-1.18373
-1.18426
-1.17798
-1.16327
-1.15568
-1.14866
-1.14581
-1.14642
-1.15909
-1.15738
-1.15187
-1.14911
-1.14342
-1.14447
-1.12124
-1.11474
-1.12755
-1.13055
-1.13066
-1.11744
-1.11105
-1.09535
-1.09591
-1.09375
-1.10218
-1.10165
-1.11709
-1.10761
-1.08373
-1.09907
-1.07762
-1.06959
-1.08074
-1.09495
-1.10124
-1.10111
-1.10077
-1.07124
-1.05905
-1.05790
-1.06425
-1.07159
-1.07462
-1.08941
-1.08813
-1.06699
-1.05070
-1.03883
-1.04835
-1.06398
-1.07716
-1.08210
-1.06109
-1.06029
-1.04417
-1.02786
-1.04253
-1.03991
-1.04530
-1.06235
-1.05583
-1.05020
-1.03880
-1.02716
-1.02214
-1.02923
-1.04211
-1.05274
-1.04554
-1.04718
-1.03621
-1.01796
-1.01878
-1.02009
-1.03286
-1.04563
-1.04018
-1.04254
-1.02518
-1.00715
-1.00042
-1.00148
-0.99748
-1.02675
-1.02767
-1.02285
-1.01685
-1.01118
-0.99186
-1.01037
-1.00199
-0.99119
-1.01222
-1.00456
-1.00023
-0.98156
-0.97451
-0.96475
-0.97702
-0.99655
-1.01148
-1.00165
-0.99055
-0.97778
-0.97049
-0.96506
-0.94693
-0.96365
-0.96584
-0.98137
-0.97426
-0.95586
-0.94559
-0.94427
-0.93496
-0.94129
-0.95660
-0.96644
-0.96013
-0.95830
-0.95367
-0.94278
-0.94060
-0.93110
-0.93939
-0.94522
-0.94753
-0.94894
-0.93675
-0.92485
-0.92880
-0.91211
-0.92899
-0.94589
-0.94798
-0.94237
-0.93239
-0.91883
-0.90987
-0.90690
-0.92097
-0.92135
-0.92837
-0.92241
-0.91937
-0.91067
-0.88300
-0.88064
-0.89146
-0.90778
-0.91531
-0.93020
-0.90893
-0.90596
-0.89870
-0.88986
-0.89743
-0.90170
-0.91099
-0.90954
-0.93284
-0.90893
-0.90734
-0.90035
-0.87987
-0.90062
-0.89512
-0.90027
-0.89939
-0.90068
-0.88905
-0.87475
-0.88655
-0.87558
-0.88529
-0.87772
-0.89260
-0.88843
-0.88900
-0.87908
-0.86151
-0.86108
-0.86143
-0.86239
-0.87043
-0.85791
-0.85600
-0.85049
-0.84722
-0.85286
-0.83541
-0.82925
-0.82453
-0.81086
-0.77743
-0.72531
-0.69420
-0.68296
-0.66564
-0.64375
-0.62681
-0.56809
-0.51622
-0.47456
-0.46832
-0.48344
-0.51013
-0.52236
-0.51965
-0.56205
-0.62687
-0.70431
-0.77546
-0.82458
-0.84613
-0.85358
-0.86061
-0.88162
-0.88849
-0.89112
-0.89104
-0.86792
-0.85593
-0.86364
-0.87731
-0.88620
-0.88213
-0.88388
-0.87685
-0.89656
-0.93125
-0.92858
-0.81252
-0.55360
-0.16006
0.36653
0.90412
1.26333
1.36872
1.21137
0.76594
0.07541
-0.63028
-0.97097
-0.93834
-0.74841
-0.60705
-0.62794
-0.70891
-0.81874
-0.88543
-0.91525
-0.91103
-0.90169
-0.87540
-0.86428
-0.87181
-0.88976
-0.91721
-0.92424
-0.91764
-0.90414
-0.89455
-0.90462
-0.89507
-0.90236
-0.91358
-0.92473
-0.93137
-0.92058
-0.89849
-0.88778
-0.89221
-0.88440
-0.90023
-0.91326
-0.91471
-0.91689
-0.89689
-0.87952
-0.87938
-0.87569
-0.88127
-0.89316
-0.89517
-0.88930
-0.87905
-0.85137
-0.82457
-0.81912
-0.80871
-0.82531
-0.81771
-0.80034
-0.77307
-0.73790
-0.70148
-0.69001
-0.67385
-0.66655
-0.66133
-0.64230
-0.62482
-0.60100
-0.56798
-0.52077
-0.50301
-0.50023
-0.47118
-0.47276
-0.44903
-0.42029
-0.38916
-0.34585
-0.32920
-0.32173
-0.30366
-0.30390
-0.30214
-0.30418
-0.29601
-0.29606
-0.32443
-0.37509
-0.40559
-0.43839
-0.47658
-0.52965
-0.54350
-0.56648
-0.58021
-0.61335
-0.64916
-0.68251
-0.70489
-0.71893
-0.72057
-0.72262
-0.73064
-0.73730
-0.74113
-0.74894
-0.77109
-0.79091
-0.75717
-0.74696
-0.73458
-0.72744
-0.71939
-0.73286
-0.75663
-0.73838
-0.72541
-0.70358
-0.70239
-0.71183
-0.72724
-0.73690
-0.74650
-0.66086
-0.54690
-0.34006
-0.08741
0.15075
0.44413
0.74628
1.10157
1.42970
1.72002
1.95547
2.11912
2.21317
2.23966
2.21637
2.11827
1.97798
1.84524
1.80527
1.82586
1.83649
1.73551
1.53312
1.27055
0.98368
0.63970
0.16891
-0.34162
-0.76538
-0.95398
-0.97306
-0.94777
-0.96687
-1.03141
-1.09210
-1.15157
-1.18510
-1.22230
-1.23457
-1.26261
-1.29582
-1.31885
-1.35114
-1.36408
-1.38605
-1.38894
-1.39230
-1.41287
-1.43924
-1.46413
-1.47859
-1.49388
-1.48886
-1.47800
-1.46381
-1.46534
-1.47277
-1.50210
-1.52016
-1.51487
-1.48571
-1.47228
-1.48579
-1.52189
-1.58239
-1.64586
-1.69065
-1.75100
-1.82746
-1.93676
-2.02917
-2.11619
-2.19366
-2.25416
-2.29512
-2.31643
-2.33593
-2.34109
-2.32901
-2.31061
-2.29718
-2.29109
-2.27033
-2.23259
-2.20244
-2.13762
-2.05141
-1.98521
-1.90283
-1.84333
-1.76567
-1.70278
-1.62065
-1.55797
-1.47249
-1.38515
-1.31898
-1.27867
-1.25435
-1.23349
-1.21200
-1.21166
-1.18048
-1.14416
-1.13895
-1.14115
-1.14149
-1.15490
-1.15702
-1.16053
-1.17426
-1.14996
-1.14062
-1.12815
-1.12694
-1.12885
-1.13471
-1.14868
-1.14496
-1.11955
-1.10361
-1.09253
-1.08341
-1.09409
-1.11691
-1.12802
-1.12313
-1.10384
-1.07922
-1.06903
-1.06349
-1.07860
-1.09636
-1.09020
-1.09129
-1.08941
-1.09820
-1.07725
-1.06787
-1.06729
-1.06422
-1.09282
-1.10491
-1.09958
-1.08344
-1.06835
-1.05847
-1.05656
-1.06357
-1.06909
-1.06228
-1.06932
-1.06299
-1.06074
-1.04252
-1.04003
-1.04449
-1.04783
-1.06702
-1.05837
-1.07026
-1.05963
-1.03270
-1.02807
-1.02009
-1.03048
-1.07147
-1.07412
-1.07924
-1.07255
-1.05035
-1.02816
-1.01791
-1.02809
-1.03546
-1.04196
-1.05960
-1.04697
-1.02591
-1.00528
-1.00103
-1.02112
-1.02870
-1.02106
-1.03093
-1.02654
-1.01387
-1.01267
-1.01824
-1.01093
-1.00662
-1.00958
-1.00573
-1.02265
-1.00733
-1.00209
-0.98864
-0.99039
-0.99829
-1.00204
-1.00197
-1.00433
-0.99361
-0.97658
-0.96623
-0.97355
-0.98041
-0.98423
-1.00120
-1.00279
-1.00169
-0.97481
-0.96670
-0.95202
-0.96458
-0.98583
-0.99442
-0.98710
-0.98824
-0.97672
-0.97418
-0.97357
-0.96871
-0.96288
-0.97336
-0.98308
-0.99497
-0.98992
-0.97308
-0.95172
-0.96482
-0.95889
-0.96272
-0.97335
-0.98098
-0.97339
-0.96095
-0.94225
-0.93211
-0.93962
-0.94060
-0.95784
-0.95414
-0.95424
-0.95490
-0.94149
-0.92750
-0.95223
-0.97564
-0.97358
-0.96777
-0.95951
-0.95357
-0.93496
-0.91951
-0.91597
-0.92741
-0.93992
-0.94462
-0.94184
-0.95495
-0.93490
-0.92880
-0.92705
-0.92554
-0.93835
-0.94128
-0.94250
-0.94824
-0.92875
-0.92175
-0.91846
-0.93244
-0.93279
-0.93146
-0.94800
-0.94086
-0.92466
-0.92295
-0.92302
-0.89289
-0.90359
-0.91798
-0.92813
-0.91393
-0.88883
-0.90223
-0.87355
-0.86734
-0.88151
-0.88433
-0.88662
-0.88408
-0.89899
-0.88014
-0.85157
-0.83695
-0.83576
-0.80425
-0.79896
-0.78349
-0.76065
-0.73673
-0.72347
-0.69055
-0.64968
-0.60938
-0.56055
-0.51874
-0.50207
-0.51269
-0.51415
-0.51145
-0.50460
-0.52446
-0.57007
-0.67186
-0.73731
-0.80141
-0.84439
-0.85277
-0.85085
-0.84286
-0.85343
-0.87157
-0.88193
-0.88689
-0.88708
-0.86674
-0.86143
-0.83349
-0.84179
-0.85687
-0.86747
-0.87833
-0.89678
-0.92077
-0.92861
-0.87093
-0.69981
-0.40012
0.03343
0.54538
1.04804
1.35705
1.43342
1.27840
0.80575
0.05274
-0.66193
-0.96926
-0.89784
-0.70124
-0.59272
-0.59817
-0.69005
-0.78165
-0.84967
-0.86703
-0.87039
-0.87262
-0.86549
-0.84951
-0.85607
-0.88154
-0.88562
-0.89901
-0.89840
-0.89401
-0.86272
-0.87965
-0.86423
-0.85944
-0.87602
-0.88198
-0.88064
-0.88620
-0.87297
-0.86567
-0.85112
-0.84427
-0.85724
-0.87680
-0.86861
-0.86102
-0.85460
-0.83643
-0.83578
-0.81646
-0.81512
-0.81095
-0.80633
-0.82233
-0.81393
-0.79280
-0.77922
-0.73990
-0.73036
-0.72807
-0.71428
-0.72173
-0.69934
-0.67083
-0.65033
-0.62261
-0.58440
-0.57468
-0.55116
-0.53470
-0.52111
-0.49369
-0.45457
-0.42032
-0.38208
-0.37721
-0.37859
-0.36564
-0.34619
-0.30856
-0.27481
-0.25834
-0.22512
-0.23543
-0.24211
-0.26377
-0.26946
-0.28634
-0.31713
-0.32375
-0.33667
-0.35502
-0.41199
-0.45900
-0.48268
-0.50508
-0.53632
-0.56555
-0.56232
-0.57333
-0.59849
-0.62130
-0.64462
-0.66131
-0.66889
-0.66367
-0.67227
-0.66405
-0.67095
-0.67236
-0.67633
-0.69287
-0.69092
-0.69491
-0.67596
-0.66684
-0.66947
-0.66402
-0.67875
-0.66649
-0.68699
-0.67254
-0.66608
-0.65770
-0.65837
-0.65085
-0.64248
-0.65155
-0.64807
-0.64949
-0.65174
-0.65917
-0.65123
-0.66254
-0.68019
-0.67699
-0.60824
-0.48814
-0.29420
-0.06115
0.19149
0.49525
0.79345
1.09536
1.41414
1.69832
1.92700
2.11368
2.21792
2.24205
2.20221
2.11670
1.99471
1.90855
1.88864
1.90592
1.89478
1.83448
1.67853
1.43009
1.13521
0.78803
0.32986
-0.21221
-0.66255
-0.89444
-0.92182
-0.89951
-0.90326
-0.96815
-1.05857
-1.12913
-1.15282
-1.15810
-1.17668
-1.18262
-1.22186
-1.24748
-1.26906
-1.28270
-1.28793
-1.28234
-1.28450
-1.28408
-1.29734
-1.29239
-1.29460
-1.31505
-1.32460
-1.30757
-1.29584
-1.26453
-1.24263
-1.24053
-1.25605
-1.30218
-1.34915
-1.37604
-1.38835
-1.41089
-1.48789
-1.59744
-1.70114
-1.79686
-1.89383
-1.97093
-2.01575
-2.05434
-2.08511
-2.12634
-2.18595
-2.21878
-2.24131
-2.26210
-2.27404
-2.28870
-2.29603
-2.29115
-2.28113
-2.27090
-2.24882
-2.20537
-2.15787
-2.09987
-2.03821
-1.98128
-1.91985
-1.85352
-1.76759
-1.68097
-1.58632
-1.49927
-1.41221
-1.35209
-1.30076
-1.25512
-1.22180
-1.20429
-1.16742
-1.13614
-1.09291
-1.07845
-1.07372
-1.08712
-1.10840
-1.11824
-1.12034
-1.10342
-1.07879
-1.06973
-1.06628
-1.07290
-1.08432
-1.08643
-1.09104
-1.07592
-1.07021
-1.05389
-1.04776
-1.03540
-1.04901
-1.06146
-1.07499
-1.05789
-1.02517
-1.01736
-1.00343
-1.02562
-1.03382
-1.03801
-1.03802
-1.03129
-1.00967
-1.00978
-1.00335
-0.98856
-1.01553
-1.02516
-1.02459
-1.01467
-1.00507
-1.00808
-0.99323
-0.98947
-0.98798
-0.99101
-0.99797
-1.00686
-0.99549
-1.00358
-0.99648
-0.98236
-0.98759
-0.98206
-1.00077
-0.99128
-0.98705
-0.99439
-0.98294
-0.96399
-0.97038
-0.98616
-0.99624
-0.99900
-0.99685
-0.99531
-0.97369
-0.95342
-0.94251
-0.95317
-0.96696
-0.96381
-0.97266
-0.96313
-0.96141
-0.95606
-0.94570
-0.95756
-0.96229
-0.96294
-0.97091
-0.97106
-0.95439
-0.93721
-0.92509
-0.92368
-0.93084
-0.95465
-0.97092
-0.96111
-0.94351
-0.94539
-0.92020
-0.92221
-0.93541
-0.95306
-0.95433
-0.95866
-0.94852
-0.95281
-0.95201
-0.92481
-0.92303
-0.93134
-0.93638
-0.94069
-0.93851
-0.93645
-0.92598
-0.91045
-0.90628
-0.91570
-0.91946
-0.93235
-0.94610
-0.92967
-0.93652
-0.91229
-0.90058
-0.91520
-0.93341
-0.95295
-0.94250
-0.93783
-0.92475
-0.93195
-0.90894
-0.90441
-0.92915
-0.93534
-0.94794
-0.95305
-0.95105
-0.91489
-0.90843
-0.91984
-0.91169
-0.92439
-0.92921
-0.94564
-0.92720
-0.91380
-0.90355
-0.90739
-0.91947
-0.93939
-0.93549
-0.92155
-0.94307
-0.91887
-0.90795
-0.90145
-0.91151
-0.93215
-0.91952
-0.91870
-0.89879
-0.89240
-0.89316
-0.87518
-0.86802
-0.87970
-0.89555
-0.91470
-0.92078
-0.90643
-0.90219
-0.88048
-0.86689
-0.88095
-0.87986
-0.88582
-0.88950
-0.88617
-0.87236
-0.87374
-0.87167
-0.86188
-0.85604
-0.85660
-0.82991
-0.81869
-0.79178
-0.74891
-0.71889
-0.71652
-0.70519
-0.68252
-0.64940
-0.58897
-0.51552
-0.48750
-0.49652
-0.51664
-0.52569
-0.52840
-0.57021
-0.62276
-0.68814
-0.74721
-0.81406
-0.85200
-0.86593
-0.87330
-0.88141
-0.89145
-0.88547
-0.88268
-0.86982
-0.85871
-0.86760
-0.88635
-0.90257
-0.89268
-0.90635
-0.88622
-0.89713
-0.91257
-0.93776
-0.92445
-0.80556
-0.56082
-0.19064
0.33774
0.87712
1.27154
1.44649
1.36866
1.02490
0.37498
-0.41487
-0.91662
-0.99142
-0.79744
-0.62553
-0.58314
-0.68461
-0.79817
-0.86940
-0.89870
-0.87058
-0.85779
-0.86185
-0.86327
-0.88436
-0.90021
-0.92042
-0.91563
-0.92212
-0.92569
-0.90730
-0.91164
-0.90935
-0.92416
-0.93452
-0.95330
-0.95267
-0.94815
-0.92662
-0.92610
-0.91789
-0.91988
-0.91653
-0.91852
-0.94059
-0.92734
-0.90893
-0.90290
-0.89197
-0.88541
-0.89735
-0.91144
-0.90247
-0.89960
-0.88226
-0.85839
-0.84070
-0.83246
-0.83205
-0.83816
-0.83057
-0.82558
-0.79873
-0.76696
-0.74788
-0.73194
-0.73532
-0.72967
-0.71551
-0.70195
-0.67388
-0.64325
-0.59948
-0.58065
-0.57343
-0.55203
-0.54232
-0.52417
-0.50175
-0.46991
-0.44474
-0.40922
-0.39059
-0.38324
-0.38092
-0.35197
-0.33867
-0.32053
-0.29676
-0.26934
-0.26230
-0.28809
-0.29977
-0.34768
-0.37844
-0.40710
-0.43590
-0.45968
-0.47941
-0.50647
-0.56053
-0.59918
-0.62877
-0.63892
-0.63512
-0.65147
-0.66250
-0.67097
-0.69562
-0.71171
-0.70917
-0.71736
-0.71794
-0.71308
-0.69715
-0.69564
-0.70329
-0.71087
-0.72007
-0.71032
-0.69924
-0.68867
-0.68019
-0.67742
-0.68939
-0.68439
-0.68116
-0.68747
-0.67077
-0.67619
-0.66453
-0.64133
-0.64345
-0.65429
-0.66115
-0.67244
-0.68271
-0.69133
-0.68200
-0.67754
-0.67728
-0.66597
-0.62178
-0.51980
-0.34423
-0.13682
0.08360
0.35048
0.63764
0.95456
1.26123
1.54441
1.78491
1.98373
2.13793
2.21559
2.23789
2.23281
2.17024
2.06169
1.98042
1.93633
1.95216
1.98409
1.97145
1.84402
1.62996
1.36210
1.02540
0.57578
0.01242
-0.50766
-0.83110
-0.92168
-0.93387
-0.92793
-0.96243
-1.03046
-1.10253
-1.13842
-1.14884
-1.15943
-1.18322
-1.21096
-1.22625
-1.25850
-1.28157
-1.29096
-1.30947
-1.30135
-1.30210
-1.31224
-1.31622
-1.32931
-1.33300
-1.33402
-1.33655
-1.31652
-1.28939
-1.27858
-1.27804
-1.30826
-1.34140
-1.38099
-1.40980
-1.42498
-1.45162
-1.51755
-1.62983
-1.76175
-1.88095
-1.99229
-2.06561
-2.09700
-2.11246
-2.15243
-2.19077
-2.23911
-2.29148
-2.29789
-2.31986
-2.32330
-2.32224
-2.30574
-2.29536
-2.28364
-2.28012
-2.25070
-2.22559
-2.16847
-2.10357
-2.02409
-1.96996
-1.89312
-1.83225
-1.75922
-1.68141
-1.60446
-1.50767
-1.41726
-1.34161
-1.27892
-1.23897
-1.20326
-1.16984
-1.12743
-1.10073
-1.06175
-1.04531
-1.05010
-1.04924
-1.07574
-1.07591
-1.07492
-1.06886
-1.06444
-1.04547
-1.05275
-1.03868
-1.05378
-1.05369
-1.04431
-1.05446
-1.03972
-1.02959
-1.01675
-1.01176
-1.04306
-1.04704
-1.04122
-1.04466
-1.02218
-1.01664
-1.00240
-0.98831
-0.99270
-1.00034
-1.01107
-1.00392
-0.98832
-0.98231
-0.97764
-0.97055
-0.97283
-0.99538
-0.99600
-0.98997
-0.98657
-0.96640
-0.94965
-0.94434
-0.95793
-0.96097
-0.97480
-0.99297
-0.97332
-0.96701
-0.95251
-0.92065
-0.93140
-0.94314
-0.95478
-0.94628
-0.94993
-0.93994
-0.93842
-0.90780
-0.91034
-0.91146
-0.93996
-0.95168
-0.94186
-0.94903
-0.92418
-0.90023
-0.88158
-0.92558
-0.91996
-0.92823
-0.91558
-0.91320
-0.90257
-0.88202
-0.90338
-0.92210
-0.91906
-0.93179
-0.92023
-0.92296
-0.90883
-0.89329
-0.86799
-0.87579
-0.89221
-0.89994
-0.89812
-0.88323
-0.88895
-0.87370
-0.87314
-0.86390
-0.87214
-0.88125
-0.89457
-0.90315
-0.89745
-0.87281
-0.85896
-0.85394
-0.86698
-0.88640
-0.88746
-0.89119
-0.89976
-0.88955
-0.87181
-0.84711
-0.87039
-0.87216
-0.88898
-0.90625
-0.91868
-0.88480
-0.85840
-0.85480
-0.85089
-0.86585
-0.86718
-0.90395
-0.89429
-0.88395
-0.88255
-0.86943
-0.87096
-0.87112
-0.87951
-0.86812
-0.87925
-0.89363
-0.88017
-0.87470
-0.86184
-0.86613
-0.87002
-0.86713
-0.86708
-0.86267
-0.86577
-0.85976
-0.86322
-0.86257
-0.84632
-0.84957
-0.86143
-0.86663
-0.88114
-0.86926
-0.85451
-0.84492
-0.83543
-0.85474
-0.86000
-0.86624
-0.86746
-0.84009
-0.82926
-0.82947
-0.84463
-0.86056
-0.86582
-0.86587
-0.87750
-0.87279
-0.86481
-0.84308
-0.82965
-0.84040
-0.84357
-0.85271
-0.84492
-0.85174
-0.82894
-0.82394
-0.83417
-0.83898
-0.82566
-0.84115
-0.85443
-0.83633
-0.79887
-0.72700
-0.68409
-0.67166
-0.66472
-0.65045
-0.62446
-0.58381
-0.51913
-0.47713
-0.46152
-0.46731
-0.49142
-0.49609
-0.49847
-0.50539
-0.56006
-0.62772
-0.67503
-0.75010
-0.81076
-0.85107
-0.86121
-0.85593
-0.86357
-0.87362
-0.86117
-0.85025
-0.84550
-0.85361
-0.88580
-0.88664
-0.88864
-0.87959
-0.85598
-0.86578
-0.89334
-0.91862
-0.91723
-0.78729
-0.53141
-0.13508
0.40876
0.94745
1.31284
1.44621
1.31875
0.92391
0.24307
-0.51387
-0.94662
-0.96098
-0.76669
-0.60483
-0.59463
-0.69682
-0.79956
-0.86644
-0.88039
-0.87729
-0.85931
-0.85137
-0.85933
-0.88504
-0.88755
-0.89957
-0.91333
-0.90952
-0.89594
-0.88850
-0.90989
-0.91901
-0.92180
-0.93221
-0.91714
-0.90068
-0.88651
-0.87677
-0.89110
-0.88718
-0.91038
-0.89187
-0.90685
-0.89234
-0.87731
-0.86888
-0.84963
-0.85637
-0.87019
-0.88110
-0.87443
-0.86668
-0.83986
-0.82601
-0.80676
-0.79969
-0.79970
-0.81395
-0.80469
-0.78112
-0.77110
-0.75387
-0.72509
-0.70001
-0.67993
-0.68127
-0.67331
-0.65631
-0.62362
-0.58500
-0.55642
-0.54050
-0.51284
-0.52690
-0.51273
-0.50345
-0.48967
-0.45911
-0.40645
-0.39535
-0.37129
-0.36844
-0.37337
-0.35922
-0.34583
-0.31724
-0.29893
-0.27245
-0.26475
-0.28124
-0.30495
-0.33886
-0.36205
-0.40377
-0.40545
-0.41656
-0.42906
-0.46869
-0.52146
-0.56773
-0.59238
-0.61479
-0.60901
-0.62786
-0.62969
-0.63703
-0.67796
-0.69295
-0.69382
-0.70056
-0.68689
-0.68777
-0.68264
-0.67767
-0.68100
-0.68830
-0.69218
-0.70098
-0.68355
-0.65309
-0.63589
-0.63267
-0.63539
-0.63763
-0.65361
-0.67638
-0.67012
-0.66091
-0.65623
-0.61630
-0.56016
-0.47154
-0.32194
-0.11470
0.11894
0.38742
0.71294
1.03904
1.36588
1.69943
1.95914
2.15728
2.30261
2.38021
2.39883
2.37225
2.28307
2.12313
2.00928
1.94027
1.95804
1.99923
1.97659
1.89224
1.70048
1.45285
1.14506
0.75431
0.23878
-0.31390
-0.73123
-0.90834
-0.90078
-0.87068
-0.87732
-0.94030
-1.03301
-1.10982
-1.15548
-1.15609
-1.15729
-1.17499
-1.19570
-1.23370
-1.25112
-1.28058
-1.30274
-1.31491
-1.31692
-1.31090
-1.33065
-1.35166
-1.38250
-1.39625
-1.41692
-1.42785
-1.44554
-1.45981
-1.48169
-1.50532
-1.53089
-1.56961
-1.59675
-1.60662
-1.61145
-1.60812
-1.61990
-1.61324
-1.62999
-1.66343
-1.69674
-1.70121
-1.65869
-1.64800
-1.65989
-1.70762
-1.77966
-1.84102
-1.88528
-1.92288
-1.96457
-2.02816
-2.08564
-2.13489
-2.19567
-2.24295
-2.25898
-2.24168
-2.20088
-2.16946
-2.11662
-2.06307
-2.00853
-1.95704
-1.89613
-1.84044
-1.76172
-1.67682
-1.59715
-1.49110
-1.40510
-1.34863
-1.28933
-1.23655
-1.18828
-1.13727
-1.09253
-1.04337
-1.02323
-1.00849
-1.01049
-1.00771
-1.01672
-1.01885
-1.00801
-0.98400
-0.97821
-0.97183
-0.98537
-0.98834
-0.99386
-0.98813
-0.96917
-0.96561
-0.95641
-0.95436
-0.95590
-0.96291
-0.95467
-0.95898
-0.95784
-0.94428
-0.94195
-0.93309
-0.93903
-0.94829
-0.95757
-0.97577
-0.96510
-0.95084
-0.94632
-0.92154
-0.91535
-0.92632
-0.94617
-0.94887
-0.93803
-0.93469
-0.93606
-0.91033
-0.90907
-0.91478
-0.93983
-0.94040
-0.95073
-0.92684
-0.90276
-0.90411
-0.90260
-0.90540
-0.91893
-0.93069
-0.92916
-0.93136
-0.92791
-0.92029
-0.89636
-0.89394
-0.90137
-0.91159
-0.91156
-0.91520
-0.90425
-0.89727
-0.88580
-0.88281
-0.89006
-0.90108
-0.90874
-0.90579
-0.89983
-0.89659
-0.88602
-0.87612
-0.88645
-0.87831
-0.89791
-0.89117
-0.88210
-0.85885
-0.84895
-0.85287
-0.85306
-0.86447
-0.87117
-0.86510
-0.87327
-0.86008
-0.84402
-0.82999
-0.83902
-0.85284
-0.85728
-0.88100
-0.85596
-0.84950
-0.83223
-0.82539
-0.81399
-0.81448
-0.82332
-0.84104
-0.83486
-0.84314
-0.82541
-0.81906
-0.81581
-0.81635
-0.81995
-0.84880
-0.85235
-0.83396
-0.82708
-0.82234
-0.81065
-0.80831
-0.81810
-0.82649
-0.83641
-0.84162
-0.83810
-0.81871
-0.80826
-0.81577
-0.82043
-0.82567
-0.84272
-0.81834
-0.82674
-0.81206
-0.78609
-0.79921
-0.78780
-0.80272
-0.82082
-0.82448
-0.82621
-0.80758
-0.79503
-0.78063
-0.78089
-0.78902
-0.81688
-0.81147
-0.81120
-0.79941
-0.77653
-0.78547
-0.77908
-0.78456
-0.80597
-0.82057
-0.81567
-0.81549
-0.80466
-0.78409
-0.76876
-0.75648
-0.76585
-0.77910
-0.79232
-0.79341
-0.80859
-0.77993
-0.76584
-0.76787
-0.77474
-0.79863
-0.80008
-0.78108
-0.78401
-0.77751
-0.75936
-0.75268
-0.76210
-0.76524
-0.77246
-0.77138
-0.77630
-0.78374
-0.74152
-0.74061
-0.74527
-0.75091
-0.75493
-0.77714
-0.77825
-0.75652
-0.72460
-0.70372
-0.67872
-0.66302
-0.65728
-0.64517
-0.64774
-0.61988
-0.58285
-0.54522
-0.47970
-0.43868
-0.40178
-0.38722
-0.40309
-0.41154
-0.39589
-0.39539
-0.39151
-0.46048
-0.53360
-0.63114
-0.70860
-0.76458
-0.77921
-0.77271
-0.74589
-0.73737
-0.75897
-0.76898
-0.79372
-0.80038
-0.78087
-0.76900
-0.75440
-0.75269
-0.75800
-0.77244
-0.80331
-0.85961
-0.86714
-0.80099
-0.60702
-0.27070
0.21816
0.77306
1.23953
1.47641
1.46316
1.19035
0.63401
-0.12516
-0.69071
-0.87116
-0.76588
-0.57707
-0.51556
-0.57048
-0.65204
-0.71484
-0.74129
-0.76325
-0.77934
-0.77770
-0.79770
-0.81475
-0.81900
-0.80715
-0.79898
-0.80024
-0.80227
-0.81833
-0.82253
-0.83155
-0.81352
-0.80613
-0.80198
-0.78325
-0.80518
-0.82795
-0.84473
-0.83485
-0.81900
-0.80467
-0.78739
-0.77118
-0.78259
-0.79644
-0.80709
-0.82668
-0.81344
-0.79182
-0.77088
-0.75473
-0.77103
-0.77292
-0.77267
-0.76906
-0.75540
-0.74027
-0.69955
-0.67856
-0.68822
-0.67918
-0.66471
-0.65632
-0.63696
-0.60933
-0.58364
-0.55381
-0.53100
-0.51992
-0.50721
-0.49845
-0.48428
-0.45840
-0.42022
-0.40331
-0.38575
-0.35617
-0.34007
-0.34496
-0.32847
-0.31368
-0.28912
-0.26155
-0.24173
-0.23591
-0.22771
-0.23183
-0.25160
-0.27051
-0.29063
-0.30033
-0.33453
-0.33397
-0.36148
-0.44228
-0.47659
-0.50922
-0.53945
-0.55255
-0.56129
-0.57728
-0.58093
-0.60844
-0.63507
-0.65988
-0.65794
-0.65415
-0.64285
-0.63698
-0.64561
-0.66247
-0.67048
-0.66348
-0.67430
-0.66355
-0.65007
-0.63340
-0.63730
-0.65519
-0.65868
-0.65755
-0.65074
-0.65172
-0.64792
-0.63232
-0.62058
-0.61865
-0.61725
-0.62986
-0.66296
-0.65837
-0.66607
-0.65497
-0.65968
-0.64528
-0.64573
-0.67137
-0.67785
-0.70506
-0.69201
-0.66448
-0.66320
-0.67685
-0.67852
-0.70362
-0.72336
-0.73622
-0.74457
-0.73012
-0.71095
-0.69879
-0.70769
-0.72485
-0.73612
-0.75680
-0.74892
-0.75671
-0.75684
-0.75061
-0.75632
-0.76237
-0.76195
-0.77262
-0.78975
-0.77865
-0.77241
-0.76956
-0.75578
-0.75072
-0.75984
-0.76428
-0.77885
-0.76873
-0.77151
-0.74131
-0.72306
-0.70540
-0.68858
-0.68191
-0.66854
-0.64796
-0.62941
-0.59206
-0.54115
-0.50145
-0.45034
-0.42796
-0.43881
-0.46146
-0.45539
-0.45203
-0.45902
-0.48484
-0.56559
-0.65003
-0.74023
-0.81509
-0.83828
-0.82261
-0.79729
-0.79390
-0.79398
-0.81516
-0.83451
-0.84326
-0.85917
-0.84656
-0.83163
-0.82591
-0.83093
-0.82668
-0.84839
-0.84803
-0.85308
-0.86051
-0.86241
-0.89997
-0.90857
-0.86689
-0.71779
-0.44851
-0.05810
0.42700
0.92061
1.28172
1.45085
1.40424
1.14317
0.59134
-0.17534
-0.80681
-1.02447
-0.86802
-0.66758
-0.56138
-0.60364
-0.71329
-0.80231
-0.85445
-0.86082
-0.82821
-0.81513
-0.81764
-0.82956
-0.86051
-0.88232
-0.87019
-0.87985
-0.86630
-0.83988
-0.83146
-0.84181
-0.84924
-0.86852
-0.88432
-0.87388
-0.86438
-0.84566
-0.82079
-0.82998
-0.84461
-0.84777
-0.85043
-0.85821
-0.85195
-0.83168
-0.81176
-0.80074
-0.80876
-0.81022
-0.82180
-0.83196
-0.84147
-0.80952
-0.79433
-0.75429
-0.74544
-0.75660
-0.75178
-0.75596
-0.73392
-0.70878
-0.69099
-0.65902
-0.64971
-0.63210
-0.63488
-0.60798
-0.59293
-0.57292
-0.53373
-0.50103
-0.48767
-0.45782
-0.43938
-0.44000
-0.41089
-0.39410
-0.37611
-0.34801
-0.31807
-0.31218
-0.30429
-0.30801
-0.29901
-0.30389
-0.29728
-0.28106
-0.29222
-0.31032
-0.36341
-0.40889
-0.45185
-0.49075
-0.53271
-0.55195
-0.57196
-0.60376
-0.64575
-0.69020
-0.73241
-0.74795
-0.76565
-0.78318
-0.78274
-0.77661
-0.79119
-0.81269
-0.83473
-0.84535
-0.88037
-0.85765
-0.84259
-0.82418
-0.82714
-0.83131
-0.82897
-0.84577
-0.84058
-0.83241
-0.80978
-0.80565
-0.78027
-0.78155
-0.79861
-0.79936
-0.81198
-0.81064
-0.78483
-0.77168
-0.74918
-0.75228
-0.77758
-0.78544
-0.78411
-0.79561
-0.79436
-0.78004
-0.75760
-0.76617
-0.77537
-0.78967
-0.80204
-0.81945
-0.82314
-0.79498
-0.77999
-0.77600
-0.78375
-0.79375
-0.81841
-0.83041
-0.84513
-0.83528
-0.82424
-0.80817
-0.80854
-0.82475
-0.83060
-0.83169
-0.84565
-0.83721
-0.84039
-0.82757
-0.82034
-0.85380
-0.85808
-0.85940
-0.87158
-0.87448
-0.85489
-0.82630
-0.82305
-0.83478
-0.84991
-0.84406
-0.84608
-0.85526
-0.84551
-0.83979
-0.80066
-0.78339
-0.76903
-0.77342
-0.74262
-0.72829
-0.69740
-0.66150
-0.63428
-0.59178
-0.52743
-0.48560
-0.49250
-0.52068
-0.54133
-0.52296
-0.51116
-0.52745
-0.57811
-0.66273
-0.74654
-0.82086
-0.87195
-0.88422
-0.86334
-0.86597
-0.85776
-0.88324
-0.88330
-0.89316
-0.91779
-0.90669
-0.89379
-0.88206
-0.88921
-0.89946
-0.92661
-0.92783
-0.91135
-0.90530
-0.89005
-0.90103
-0.93156
-0.93573
-0.85233
-0.62892
-0.23158
0.32555
0.89804
1.29036
1.42025
1.24599
0.72740
-0.06827
-0.77532
-1.08216
-0.97113
-0.75258
-0.63949
-0.65572
-0.75487
-0.84930
-0.91036
-0.91572
-0.91027
-0.89442
-0.89032
-0.88858
-0.90080
-0.91265
-0.93039
-0.93495
-0.95146
-0.93007
-0.91778
-0.90037
-0.91612
-0.92215
-0.92852
-0.94693
-0.94953
-0.95409
-0.91617
-0.91623
-0.89385
-0.90004
-0.91415
-0.91842
-0.91356
-0.90520
-0.90529
-0.90711
-0.89706
-0.87881
-0.86926
-0.87586
-0.87523
-0.86256
-0.84621
-0.83596
-0.80113
-0.78164
-0.80413
-0.79894
-0.75855
-0.74647
-0.71619
-0.67502
-0.65441
-0.60800
-0.57726
-0.58204
-0.57663
-0.54027
-0.50575
-0.47141
-0.43033
-0.38855
-0.38314
-0.37060
-0.35598
-0.34179
-0.34126
-0.29966
-0.28202
-0.26441
-0.25820
-0.26878
-0.31020
-0.34181
-0.37127
-0.42354
-0.42798
-0.45607
-0.49996
-0.54974
-0.61386
-0.67396
-0.69177
-0.74216
-0.74934
-0.77407
-0.78293
-0.78312
-0.80567
-0.82631
-0.83829
-0.85904
-0.87159
-0.84668
-0.84931
-0.85816
-0.86653
-0.87056
-0.88857
-0.89023
-0.86925
-0.86151
-0.84740
-0.83776
-0.84469
-0.85426
-0.85501
-0.85743
-0.85115
-0.84527
-0.81792
-0.80040
-0.79428
-0.79502
-0.81654
-0.82544
-0.83593
-0.82198
-0.80290
-0.80527
-0.79362
-0.80884
-0.81931
-0.82581
-0.82145
-0.82542
-0.83621
-0.82244
-0.81976
-0.83608
-0.84478
-0.85683
-0.87320
-0.87724
-0.88042
-0.86815
-0.86915
-0.86387
-0.86864
-0.88361
-0.90857
-0.92680
-0.91726
-0.89071
-0.87736
-0.86511
-0.89101
-0.90398
-0.91337
-0.91569
-0.93255
-0.90916
-0.88919
-0.88838
-0.88609
-0.89496
-0.91395
-0.92422
-0.92969
-0.91267
-0.88181
-0.86891
-0.85486
-0.85682
-0.83682
-0.81912
-0.81659
-0.78185
-0.76716
-0.73764
-0.72026
-0.68988
-0.65847
-0.61797
-0.58936
-0.55544
-0.57303
-0.57760
-0.57796
-0.59446
-0.62857
-0.69069
-0.75825
-0.83459
-0.88574
-0.91362
-0.94274
-0.93964
-0.95022
-0.96575
-0.97285
-0.99134
-0.98525
-0.97548
-0.96915
-0.95857
-0.97513
-0.99175
-0.99563
-0.99621
-0.98521
-0.97135
-0.95998
-0.96496
-1.01291
-1.03161
-1.03598
-0.90974
-0.67255
-0.26132
0.26922
0.81317
1.18067
1.30918
1.16247
0.74071
0.03232
-0.72814
-1.12575
-1.09935
-0.87514
-0.72382
-0.72629
-0.82584
-0.93343
-0.98006
-0.98453
-0.96778
-0.96950
-0.97847
-0.98201
-0.99393
-1.02310
-1.02326
-1.01336
-0.99943
-0.99015
-0.99602
-1.00000
-1.01406
-1.01889
-1.03338
-1.01278
-0.99642
-0.99729
-0.99066
-0.99566
-1.00360
-1.01317
-1.02462
-1.00394
-0.99274
-0.97095
-0.96803
-0.96951
-0.97544
-0.98388
-0.97319
-0.95810
-0.94696
-0.92857
-0.90417
-0.89862
-0.90287
-0.89890
-0.90315
-0.88470
-0.84310
-0.80829
-0.79081
-0.76205
-0.74268
-0.73032
-0.72508
-0.70639
-0.67250
-0.63578
-0.58622
-0.55227
-0.52765
-0.51828
-0.51615
-0.49832
-0.46971
-0.42883
-0.39945
-0.37709
-0.37054
-0.36403
-0.38831
-0.42662
-0.45254
-0.44809
-0.46584
-0.49393
-0.54903
-0.60380
-0.66119
-0.70490
-0.75431
-0.78536
-0.81322
-0.83841
-0.83333
-0.85159
-0.88318
-0.89562
-0.94403
-0.95255
-0.93235
-0.93536
-0.92454
-0.94333
-0.94705
-0.98168
-0.97469
-0.97658
-0.97633
-0.95340
-0.94123
-0.94123
-0.95249
-0.94676
-0.95109
-0.94994
-0.93486
-0.92799
-0.90967
-0.91808
-0.91747
-0.91192
-0.93338
-0.92372
-0.92637
-0.91444
-0.89802
-0.89092
-0.88994
-0.91109
-0.93192
-0.92711
-0.93236
-0.93327
-0.90792
-0.91415
-0.89217
-0.90938
-0.93280
-0.95623
-0.95962
-0.97037
-0.96178
-0.93640
-0.93595
-0.93912
-0.94940
-0.94882
-0.96422
-0.97427
-0.96475
-0.95989
-0.94451
-0.95110
-0.96806
-0.96684
-0.97831
-0.97635
-0.98488
-0.97069
-0.95267
-0.94287
-0.94730
-0.95854
-0.94846
-0.93937
-0.91630
-0.87957
-0.84725
-0.79435
-0.79774
-0.77346
-0.73921
-0.70981
-0.66564
-0.62508
-0.61806
-0.62229
-0.63449
-0.65750
-0.69596
-0.73992
-0.83110
-0.88544
-0.94923
-0.99364
-0.99206
-1.00176
-1.01493
-1.02900
-1.02998
-1.05099
-1.04429
-1.01976
-1.02779
-1.02923
-1.03525
-1.05275
-1.05977
-1.06616
-1.04258
-1.01657
-0.99983
-1.00485
-1.03646
-1.07858
-1.09429
-1.05468
-0.88175
-0.59121
-0.17908
0.30400
0.80947
1.13198
1.23547
1.17766
0.92505
0.46701
-0.18826
-0.80870
-1.12851
-1.10638
-0.93951
-0.79225
-0.76902
-0.83990
-0.92151
-0.97129
-1.00924
-0.99949
-1.00962
-1.01700
-1.04224
-1.04665
-1.02347
-1.01367
-1.01819
-1.02480
-1.05480
-1.06501
-1.07114
-1.07960
-1.05144
-1.04276
-1.01809
-1.02510
-1.03203
-1.04934
-1.04661
-1.05164
-1.06264
-1.03256
-1.02116
-1.00861
-1.01063
-1.02041
-1.02145
-1.00531
-0.99508
-0.98521
-0.98181
-0.95602
-0.96837
-0.97441
-0.97437
-0.94381
-0.94299
-0.91590
-0.90153
-0.87785
-0.86121
-0.86021
-0.85856
-0.85430
-0.81680
-0.79188
-0.77231
-0.72926
-0.69554
-0.67920
-0.66488
-0.63970
-0.61119
-0.57581
-0.55446
-0.52421
-0.49724
-0.48220
-0.47091
-0.46621
-0.46465
-0.42470
-0.38887
-0.39120
-0.37688
-0.38392
-0.41091
-0.44246
-0.48256
-0.54015
-0.55412
-0.57918
-0.61857
-0.65704
-0.71041
-0.75786
-0.79363
-0.84678
-0.88212
-0.89075
-0.89426
-0.89924
-0.92023
-0.93584
-0.97439
-0.98869
-0.97540
-0.96811
-0.97032
-0.97825
-0.97000
-0.97828
-0.99612
-1.00393
-0.99778
-0.98391
-0.95709
-0.94605
-0.93918
-0.93343
-0.92957
-0.93583
-0.94454
-0.93263
-0.92232
-0.90943
-0.88643
-0.86354
-0.79062
-0.63606
-0.42429
-0.15962
0.15362
0.47517
0.82719
1.21261
1.53615
1.80075
2.00174
2.09809
2.13864
2.12425
2.06562
1.95193
1.81150
1.72346
1.70732
1.73662
1.74333
1.67118
1.52020
1.29445
1.00428
0.61425
0.07054
-0.50552
-0.93571
-1.13257
-1.14338
-1.09020
-1.11136
-1.18249
-1.27258
-1.34835
-1.38323
-1.39892
-1.41232
-1.44284
-1.44982
-1.47105
-1.50661
-1.52026
-1.54345
-1.54569
-1.55985
-1.56713
-1.57150
-1.61213
-1.64870
-1.65794
-1.67511
-1.66553
-1.66551
-1.65875
-1.64267
-1.65306
-1.67331
-1.70989
-1.70397
-1.67549
-1.66395
-1.67138
-1.70608
-1.77206
-1.83000
-1.90132
-1.97092
-2.04854
-2.14951
-2.23163
-2.33215
-2.38570
-2.43381
-2.46137
-2.47677
-2.49208
-2.48466
-2.46933
-2.43880
-2.40857
-2.38125
-2.34661
-2.30260
-2.25687
-2.18588
-2.10685
-2.01838
-1.93070
-1.85750
-1.78675
-1.71075
-1.64496
-1.58143
-1.50091
-1.42770
-1.36253
-1.31715
-1.29001
-1.29357
-1.27823
-1.27186
-1.26162
-1.24819
-1.22271
-1.20735
-1.21504
-1.21987
-1.23315
-1.23134
-1.22697
-1.23072
-1.21354
-1.19256
-1.18369
-1.20375
-1.21328
-1.21209
-1.21300
-1.20611
-1.19049
-1.17526
-1.17928
-1.17146
-1.17862
-1.18843
-1.19598
-1.18506
-1.17088
-1.16500
-1.13744
-1.16481
-1.15140
-1.15829
-1.17521
-1.16822
-1.16390
-1.15934
-1.13794
-1.13401
-1.13972
-1.15251
-1.15607
-1.15917
-1.14570
-1.13029
-1.12897
-1.11839
-1.11602
-1.12193
-1.13695
-1.14081
-1.13730
-1.12649
-1.11690
-1.09295
-1.10318
-1.10981
-1.12866
-1.12235
-1.12038
-1.11577
-1.09390
-1.08557
-1.07337
-1.08588
-1.09662
-1.09346
-1.10493
-1.09221
-1.09424
-1.08583
-1.06566
-1.07807
-1.08287
-1.09079
-1.09456
-1.08370
-1.07200
-1.06528
-1.05699
-1.05542
-1.06804
-1.07506
-1.08593
-1.08418
-1.06206
-1.05168
-1.05879
-1.04633
-1.04723
-1.07202
-1.06866
-1.08051
-1.07575
-1.05080
-1.03232
-1.04774
-1.04202
-1.03644
-1.04939
-1.05185
-1.05051
-1.03990
-1.03606
-1.03601
-1.03847
-1.03347
-1.04991
-1.05437
-1.07674
-1.06860
-1.05171
-1.01286
-1.00373
-1.03639
-1.03349
-1.03396
-1.05051
-1.04846
-1.01629
-0.98128
-0.99837
-1.00636
-1.00895
-1.01801
-1.04238
-1.02087
-1.01894
-1.00653
-1.01125
-1.00315
-1.00278
-1.01713
-1.03993
-1.02672
-1.02403
-1.01837
-0.99064
-0.99654
-0.99446
-1.01261
-1.01228
-1.00270
-1.00072
-0.98979
-0.97372
-0.97284
-0.98417
-0.98302
-0.99232
-0.98449
-0.99372
-0.98196
-0.97514
-0.96758
-0.97641
-0.98890
-0.99731
-1.01353
-1.00984
-0.99640
-0.99525
-0.97529
-0.98987
-1.01530
-0.99411
-0.99256
-0.99831
-1.00717
-0.99249
-0.97850
-0.97429
-0.98988
-0.98671
-0.99422
-0.99337
-0.98579
-0.97554
-0.96395
-0.95682
-0.96243
-0.96228
-0.96729
-0.97348
-0.97078
-0.95185
-0.93005
-0.90810
-0.88328
-0.85512
-0.84791
-0.84111
-0.82351
-0.79248
-0.74365
-0.64954
-0.58952
-0.56446
-0.57617
-0.60788
-0.61034
-0.62835
-0.64014
-0.65925
-0.72564
-0.79823
-0.88674
-0.97142
-0.99604
-0.98732
-0.98710
-0.97750
-0.95897
-0.95454
-0.96880
-0.97866
-0.99077
-1.00068
-0.98716
-0.97763
-0.96128
-0.95450
-0.98978
-1.03478
-1.06037
-0.97943
-0.74617
-0.34384
0.18257
0.75104
1.15562
1.31705
1.23600
0.88861
0.24275
-0.49907
-0.98929
-1.05022
-0.88938
-0.74808
-0.71754
-0.80675
-0.90853
-0.97371
-0.98846
-0.97656
-0.97426
-0.98145
-0.97922
-0.99161
-1.02640
-1.01159
-1.00093
-0.99760
-0.98359
-0.98585
-0.99688
-1.03127
-1.02231
-1.02144
-1.02936
-0.98849
-0.98300
-0.98999
-1.00130
-1.01843
-1.03208
-1.03476
-1.02458
-1.01262
-0.98482
-0.98901
-0.98763
-0.99322
-1.00052
-0.98726
-0.99032
-0.96830
-0.95336
-0.94832
-0.92439
-0.91811
-0.92235
-0.90962
-0.90353
-0.88121
-0.85278
-0.82652
-0.80112
-0.80216
-0.79999
-0.79350
-0.77271
-0.74367
-0.71111
-0.67472
-0.64300
-0.63491
-0.62188
-0.62893
-0.60287
-0.57037
-0.54583
-0.50618
-0.47355
-0.45471
-0.44925
-0.45630
-0.42873
-0.43118
-0.40437
-0.38053
-0.38512
-0.38621
-0.40988
-0.46812
-0.49078
-0.52546
-0.55061
-0.57621
-0.58539
-0.62192
-0.66042
-0.70935
-0.74045
-0.75851
-0.78359
-0.79989
-0.80663
-0.80776
-0.82258
-0.83664
-0.84210
-0.85644
-0.85872
-0.84669
-0.84827
-0.84629
-0.83516
-0.83054
-0.84750
-0.84637
-0.83483
-0.82989
-0.81128
-0.79984
-0.79164
-0.79933
-0.80152
-0.81001
-0.80569
-0.81340
-0.78659
-0.74183
-0.64349
-0.48025
-0.28130
-0.09248
0.16732
0.45386
0.77990
1.13749
1.45374
1.70008
1.89947
2.06779
2.15888
2.18863
2.15807
2.09724
1.97160
1.85680
1.79630
1.77650
1.76599
1.69043
1.51564
1.30129
1.05273
0.73128
0.26852
-0.27945
-0.76490
-1.03416
-1.08885
-1.07989
-1.06868
-1.09390
-1.16068
-1.22744
-1.30655
-1.35143
-1.36318
-1.38139
-1.37925
-1.39400
-1.40810
-1.44130
-1.46313
-1.48529
-1.52027
-1.54268
-1.54523
-1.55351
-1.52570
-1.53804
-1.54408
-1.54926
-1.56590
-1.56241
-1.57311
-1.54902
-1.54278
-1.52798
-1.51170
-1.51802
-1.55563
-1.60008
-1.65971
-1.68448
-1.69701
-1.75441
-1.82808
-1.93428
-2.04391
-2.13517
-2.21486
-2.25838
-2.27897
-2.29354
-2.34151
-2.36194
-2.40517
-2.44056
-2.46466
-2.46732
-2.43942
-2.41106
-2.39703
-2.37369
-2.36394
-2.34369
-2.30828
-2.25144
-2.18539
-2.10786
-2.03851
-1.97273
-1.89706
-1.83986
-1.77192
-1.70677
-1.61440
-1.53541
-1.45906
-1.40223
-1.37835
-1.36194
-1.34698
-1.32797
-1.29986
-1.27773
-1.26191
-1.27195
-1.26389
-1.27881
-1.26841
-1.26943
-1.27031
-1.26902
-1.25790
-1.24082
-1.24661
-1.24685
-1.25858
-1.26450
-1.25469
-1.23185
-1.22169
-1.20538
-1.21602
-1.21857
-1.23683
-1.25015
-1.22875
-1.23245
-1.20695
-1.19581
-1.20624
-1.19904
-1.20555
-1.20364
-1.21111
-1.22768
-1.20849
-1.19132
-1.19712
-1.19194
-1.18116
-1.20538
-1.19607
-1.19550
-1.18872
-1.18554
-1.16751
-1.16030
-1.15741
-1.17328
-1.18009
-1.17671
-1.17744
-1.17009
-1.13965
-1.15008
-1.14360
-1.15445
-1.16946
-1.16964
-1.17659
-1.16959
-1.14741
-1.13828
-1.14466
-1.15904
-1.15688
-1.15432
-1.15628
-1.14782
-1.14619
-1.13407
-1.13231
-1.13175
-1.13855
-1.14225
-1.15083
-1.14044
-1.13073
-1.13240
-1.10782
-1.13540
-1.13698
-1.12985
-1.13324
-1.13301
-1.12792
-1.11767
-1.10452
-1.12564
-1.14790
-1.14283
-1.12991
-1.13490
-1.11842
-1.10739
-1.09296
-1.08953
-1.10436
-1.11579
-1.13085
-1.12970
-1.10928
-1.10148
-1.08662
-1.08501
-1.09638
-1.11281
-1.11500
-1.11841
-1.12952
-1.10110
-1.09723
-1.08778
-1.08823
-1.10451
-1.09753
-1.10012
-1.10820
-1.09437
-1.08339
-1.08412
-1.06594
-1.06769
-1.08432
-1.08872
-1.10028
-1.09197
-1.07417
-1.05411
-1.06855
-1.08639
-1.07619
-1.09473
-1.09066
-1.09451
-1.08220
-1.08649
-1.07520
-1.07562
-1.07965
-1.07289
-1.08556
-1.08383
-1.08004
-1.07517
-1.05415
-1.06195
-1.07139
-1.07913
-1.09060
-1.10207
-1.07154
-1.07025
-1.06014
-1.05784
-1.06134
-1.06346
-1.06150
-1.08206
-1.07842
-1.05167
-1.06248
-1.05370
-1.04225
-1.05852
-1.05749
-1.06741
-1.06997
-1.06552
-1.03971
-1.05030
-1.04385
-1.05224
-1.05319
-1.04435
-1.06291
-1.06524
-1.04264
-1.01820
-1.03394
-1.02294
-1.01960
-1.02635
-1.03022
-1.00428
-0.96643
-0.93474
-0.89605
-0.86985
-0.86848
-0.85069
-0.82633
-0.77585
-0.71107
-0.66995
-0.66080
-0.64746
-0.68402
-0.71210
-0.70983
-0.75164
-0.80723
-0.85649
-0.91620
-0.97101
-1.02874
-1.03428
-1.04392
-1.04844
-1.05120
-1.05768
-1.03495
-1.03252
-1.02136
-1.02919
-1.05510
-1.05879
-1.05264
-1.04422
-1.03980
-1.04454
-1.06889
-1.04630
-0.94446
-0.72450
-0.35222
0.13726
0.67205
1.04078
1.17335
1.07556
0.75718
0.23871
-0.41419
-0.93647
-1.08880
-0.98652
-0.83421
-0.76603
-0.81592
-0.91533
-0.98995
-1.04040
-1.04680
-1.04006
-1.03171
-1.05243
-1.03448
-1.05390
-1.06731
-1.07600
-1.08018
-1.06786
-1.07190
-1.07978
-1.07763
-1.09752
-1.10522
-1.10252
-1.10308
-1.08666
-1.06457
-1.07013
-1.06817
-1.07705
-1.08167
-1.09317
-1.09648
-1.08666
-1.06534
-1.05961
-1.03978
-1.04988
-1.05074
-1.06196
-1.07009
-1.04156
-1.02448
-1.00209
-0.99369
-0.98534
-0.99444
-1.00382
-0.99457
-0.97876
-0.94540
-0.91608
-0.89193
-0.84938
-0.86120
-0.84415
-0.82488
-0.81298
-0.78905
-0.75172
-0.70281
-0.68880
-0.65898
-0.65909
-0.65086
-0.63365
-0.60967
-0.57728
-0.56654
-0.53406
-0.50839
-0.51460
-0.50410
-0.49814
-0.48774
-0.47932
-0.49903
-0.48551
-0.49601
-0.53394
-0.57878
-0.62605
-0.65816
-0.67932
-0.70137
-0.72003
-0.75215
-0.78798
-0.82430
-0.86976
-0.87257
-0.86766
-0.87597
-0.87296
-0.88787
-0.88674
-0.89841
-0.92777
-0.93911
-0.93419
-0.91713
-0.89920
-0.88947
-0.88017
-0.89276
-0.89834
-0.89973
-0.90466
-0.88469
-0.86849
-0.84686
-0.85008
-0.86485
-0.87968
-0.87592
-0.86385
-0.85805
-0.83082
-0.82435
-0.81556
-0.82835
-0.83654
-0.83685
-0.81288
-0.70667
-0.54202
-0.33831
-0.10270
0.13622
0.42845
0.74209
1.04644
1.35323
1.63131
1.86176
2.00155
2.07261
2.08692
2.03841
1.94879
1.84199
1.76307
1.74809
1.73889
1.75908
1.70600
1.57548
1.35430
1.08163
0.78832
0.41940
-0.05383
-0.55433
-0.92100
-1.07005
-1.10017
-1.11665
-1.14618
-1.19642
-1.27232
-1.31929
-1.35129
-1.36628
-1.38283
-1.41454
-1.44694
-1.47635
-1.45826
-1.45508
-1.46660
-1.48419
-1.49539
-1.49888
-1.50826
-1.50113
-1.50368
-1.49835
-1.49930
-1.50911
-1.48191
-1.48079
-1.49253
-1.52711
-1.54190
-1.58276
-1.61578
-1.63664
-1.71673
-1.80934
-1.93060
-2.04670
-2.15327
-2.22373
-2.23986
-2.26921
-2.32928
-2.37427
-2.41720
-2.45243
-2.48173
-2.50168
-2.49892
-2.50179
-2.49418
-2.48916
-2.47118
-2.45935
-2.44637
-2.42112
-2.36542
-2.29160
-2.21363
-2.14522
-2.08987
-2.03539
-1.96894
-1.88586
-1.80738
-1.71069
-1.61387
-1.55069
-1.48296
-1.43819
-1.42141
-1.39477
-1.35287
-1.31320
-1.27869
-1.27189
-1.27098
-1.28901
-1.29207
-1.29596
-1.29895
-1.27625
-1.26099
-1.25740
-1.25535
-1.25820
-1.27555
-1.28408
-1.26995
-1.24393
-1.24470
-1.22979
-1.22702
-1.23918
-1.23745
-1.24899
-1.24560
-1.22801
-1.22522
-1.21733
-1.20045
-1.21292
-1.21575
-1.21531
-1.23987
-1.21925
-1.19444
-1.18841
-1.17199
-1.18021
-1.19713
-1.20068
-1.21082
-1.20030
-1.19309
-1.18273
-1.17496
-1.17248
-1.17962
-1.18674
-1.20566
-1.19614
-1.17637
-1.17532
-1.16079
-1.15953
-1.16505
-1.16209
-1.17403
-1.17776
-1.16609
-1.15061
-1.14475
-1.13995
-1.13132
-1.16788
-1.18226
-1.17673
-1.17100
-1.17361
-1.15357
-1.12694
-1.13082
-1.15189
-1.15852
-1.17065
-1.17391
-1.16758
-1.14320
-1.11375
-1.11632
-1.13656
-1.13740
-1.14510
-1.15489
-1.13804
-1.11150
-1.09173
-1.09710
-1.11214
-1.10141
-1.12253
-1.13410
-1.12489
-1.12466
-1.10572
-1.10484
-1.08033
-1.08579
-1.12193
-1.12970
-1.12468
-1.10449
-1.08791
-1.06899
-1.06085
-1.06202
-1.08357
-1.09568
-1.09940
-1.09286
-1.07392
-1.06101
-1.06523
-1.06128
-1.07082
-1.09287
-1.10311
-1.09664
-1.09213
-1.07870
-1.05688
-1.07195
-1.08049
-1.09063
-1.10909
-1.09848
-1.07663
-1.06312
-1.06258
-1.04855
-1.04579
-1.05447
-1.04737
-1.05548
-1.05386
-1.05202
-1.03571
-1.04014
-1.03505
-1.05065
-1.06983
-1.08571
-1.07639
-1.06307
-1.03018
-1.01271
-1.01784
-1.03706
-1.05659
-1.07045
-1.06430
-1.06442
-1.05086
-1.02846
-1.00979
-1.01983
-1.02823
-1.06034
-1.07875
-1.07854
-1.03251
-1.01456
-1.01767
-1.03633
-1.03406
-1.04705
-1.04543
-1.05682
-1.05068
-1.03588
-1.02016
-1.00882
-1.03298
-1.04386
-1.05232
-1.04448
-1.03394
-1.03218
-1.02533
-1.01969
-1.02635
-1.04329
-1.04636
-1.05371
-1.04344
-1.03431
-1.01013
-0.99087
-0.97326
-0.98686
-0.97106
-0.94984
-0.93282
-0.90358
-0.88023
-0.85387
-0.82691
-0.79967
-0.77043
-0.71376
-0.69503
-0.70087
-0.70651
-0.72702
-0.76270
-0.80439
-0.84324
-0.92211
-0.98607
-1.02960
-1.04490
-1.03442
-1.02838
-1.01061
-1.02187
-1.03163
-1.04930
-1.04780
-1.03384
-1.02944
-1.01606
-1.00601
-1.01928
-1.03250
-1.06263
-1.08206
-1.09272
-1.03376
-0.86691
-0.58089
-0.15526
0.37674
0.88094
1.21002
1.29961
1.10923
0.61104
-0.15679
-0.85847
-1.14801
-1.08712
-0.89297
-0.76631
-0.80004
-0.90569
-0.96247
-1.02345
-1.02990
-1.05296
-1.05578
-1.05695
-1.05553
-1.03623
-1.04878
-1.04184
-1.03620
-1.05004
-1.07204
-1.06809
-1.08027
-1.06687
-1.05695
-1.04401
-1.05300
-1.07300
-1.08133
-1.09525
-1.08378
-1.08378
-1.05826
-1.04744
-1.04788
-1.03700
-1.06053
-1.05535
-1.04403
-1.04322
-1.02257
-1.01140
-1.00073
-0.99637
-0.99383
-0.99658
-0.98323
-0.97667
-0.94372
-0.92940
-0.92181
-0.90120
-0.89408
-0.88698
-0.87968
-0.84626
-0.83028
-0.78783
-0.75448
-0.74192
-0.71727
-0.70912
-0.69800
-0.67148
-0.64049
-0.61060
-0.58457
-0.57034
-0.55627
-0.53562
-0.51984
-0.50908
-0.49258
-0.44766
-0.42859
-0.40001
-0.41798
-0.44509
-0.45471
-0.48012
-0.50745
-0.52595
-0.54295
-0.56899
-0.59823
-0.64993
-0.69579
-0.73730
-0.78059
-0.79427
-0.79423
-0.79562
-0.79662
-0.82281
-0.82640
-0.85073
-0.86889
-0.86683
-0.86737
-0.85564
-0.84691
-0.85209
-0.85764
-0.86275
-0.86555
-0.84849
-0.83384
-0.82615
-0.79988
-0.80714
-0.81457
-0.80643
-0.82731
-0.83752
-0.83471
-0.82515
-0.81065
-0.77791
-0.69996
-0.59091
-0.40648
-0.19596
0.07632
0.37600
0.71214
1.08195
1.43220
1.74268
1.98688
2.15440
2.25811
2.30852
2.27965
2.20966
2.06488
1.92218
1.84657
1.82316
1.83625
1.77864
1.61371
1.39615
1.10412
0.71204
0.21531
-0.36959
-0.83652
-1.06637
-1.08876
-1.07080
-1.07259
-1.13769
-1.23121
-1.30254
-1.34624
-1.36531
-1.38139
-1.37138
-1.39637
-1.42199
-1.43271
-1.46614
-1.49016
-1.51101
-1.52761
-1.52539
-1.53307
-1.54327
-1.57399
-1.60993
-1.64365
-1.66609
-1.68233
-1.68363
-1.69259
-1.68610
-1.70410
-1.72866
-1.75335
-1.76964
-1.78116
-1.77342
-1.75768
-1.73916
-1.76487
-1.84603
-1.91873
-2.01483
-2.08088
-2.13731
-2.16852
-2.21010
-2.26600
-2.33420
-2.40407
-2.45563
-2.47650
-2.47035
-2.45741
-2.45095
-2.42635
-2.42476
-2.39083
-2.35903
-2.31863
-2.26410
-2.19112
-2.11343
-2.03240
-1.95372
-1.87231
-1.81206
-1.72593
-1.64535
-1.56808
-1.48889
-1.41753
-1.35018
-1.31180
-1.29137
-1.27679
-1.25066
-1.22813
-1.20720
-1.18845
-1.17397
-1.17681
-1.17105
-1.18326
-1.19833
-1.20374
-1.20561
-1.18835
-1.17338
-1.16475
-1.16525
-1.16853
-1.16992
-1.16045
-1.14083
-1.13564
-1.12728
-1.11540
-1.13444
-1.13337
-1.14109
-1.15656
-1.14211
-1.12120
-1.12394
-1.10197
-1.09620
-1.09940
-1.12118
-1.11867
-1.11302
-1.10429
-1.08267
-1.07599
-1.07739
-1.08819
-1.09983
-1.10205
-1.10239
-1.09791
-1.08933
-1.06531
-1.04976
-1.06434
-1.07318
-1.09261
-1.09802
-1.09907
-1.08243
-1.05809
-1.07567
-1.07155
-1.06766
-1.08065
-1.08892
-1.09679
-1.08712
-1.07877
-1.04745
-1.05380
-1.05774
-1.05375
-1.06562
-1.06373
-1.05406
-1.03591
-1.03013
-1.02934
-1.03646
-1.04773
-1.05896
-1.05286
-1.04707
-1.03433
-1.01684
-1.01655
-1.02666
-1.02324
-1.03962
-1.05174
-1.04265
-1.03649
-1.01325
-0.99892
-1.01282
-1.00958
-1.02859
-1.04379
-1.03759
-1.02069
-1.00366
-0.99619
-0.99765
-0.99623
-1.02193
-1.02427
-1.02170
-1.02325
-1.00293
-0.99569
-1.00570
-1.01716
-1.01254
-1.02135
-1.02284
-1.02183
-1.01337
-0.98895
-0.97747
-0.97702
-0.97963
-0.99818
-1.00925
-1.01940
-1.00293
-0.99794
-0.97473
-0.96357
-0.97283
-0.97551
-0.99058
-0.99688
-0.99311
-0.98540
-0.96620
-0.95955
-0.96181
-0.96578
-0.99506
-0.97330
-0.97207
-0.96265
-0.95601
-0.93477
-0.94582
-0.95366
-0.96583
-0.99166
-0.97370
-0.96618
-0.93961
-0.92242
-0.90687
-0.90773
-0.92162
-0.93563
-0.93974
-0.92832
-0.92278
-0.89901
-0.89325
-0.90280
-0.91341
-0.92563
-0.92105
-0.92482
-0.90798
-0.88671
-0.88991
-0.89588
-0.89753
-0.90564
-0.90854
-0.93080
-0.92745
-0.90369
-0.89648
-0.88084
-0.88895
-0.90821
-0.91303
-0.91252
-0.90989
-0.91290
-0.88706
-0.87629
-0.88944
-0.90874
-0.90940
-0.90253
-0.92601
-0.89760
-0.88066
-0.85737
-0.85190
-0.84500
-0.83132
-0.82327
-0.79128
-0.75858
-0.71382
-0.68749
-0.66113
-0.62275
-0.58211
-0.55540
-0.55226
-0.59485
-0.61435
-0.62570
-0.64192
-0.66716
-0.71861
-0.77396
-0.84079
-0.89163
-0.90185
-0.89538
-0.87212
-0.87119
-0.88529
-0.89555
-0.89389
-0.89770
-0.90361
-0.87972
-0.86017
-0.85697
-0.86901
-0.87846
-0.89625
-0.89336
-0.91709
-0.94493
-0.92248
-0.84431
-0.65228
-0.37022
0.03721
0.53409
1.00980
1.32451
1.41266
1.31232
0.97582
0.37280
-0.36770
-0.88806
-0.99636
-0.84037
-0.66153
-0.60410
-0.66602
-0.77122
-0.84386
-0.88663
-0.89869
-0.89092
-0.88972
-0.89019
-0.89918
-0.91291
-0.93186
-0.94743
-0.95383
-0.93736
-0.94123
-0.92992
-0.91466
-0.92079
-0.91821
-0.92734
-0.92978
-0.93255
-0.93767
-0.92638
-0.91607
-0.90884
-0.92159
-0.92840
-0.94150
-0.93658
-0.93910
-0.92111
-0.90611
-0.88946
-0.88751
-0.89699
-0.90053
-0.89812
-0.90753
-0.89237
-0.87017
-0.84941
-0.82954
-0.83365
-0.83251
-0.81613
-0.82074
-0.79733
-0.79118
-0.76564
-0.74919
-0.73964
-0.72203
-0.69803
-0.68219
-0.66805
-0.63341
-0.59741
-0.56318
-0.54098
-0.53322
-0.51519
-0.51681
-0.51429
-0.48914
-0.46650
-0.40939
-0.38023
-0.36220
-0.35748
-0.35261
-0.35406
-0.34467
-0.33512
-0.33940
-0.35289
-0.40031
-0.41968
-0.45634
-0.48860
-0.50350
-0.55406
-0.57255
-0.58644
-0.61878
-0.67373
-0.71705
-0.71767
-0.75755
-0.77284
-0.78463
-0.78156
-0.79256
-0.82891
-0.84409
-0.82690
-0.83965
-0.84060
-0.83407
-0.83263
-0.82398
-0.81615
-0.83329
-0.84291
-0.83946
-0.83634
-0.82470
-0.80745
-0.79029
-0.81576
-0.81826
-0.80526
-0.81970
-0.82310
-0.81961
-0.79206
-0.76621
-0.77502
-0.78020
-0.79523
-0.81924
-0.82011
-0.81381
-0.81012
-0.80112
-0.80817
-0.82979
-0.83069
-0.83635
-0.84252
-0.86406
-0.86198
-0.84865
-0.85247
-0.84913
-0.86041
-0.86169
-0.86878
-0.87366
-0.88079
-0.87503
-0.87450
-0.87759
-0.89300
-0.90416
-0.91630
-0.91949
-0.91573
-0.91117
-0.89757
-0.90464
-0.90050
-0.92493
-0.93124
-0.94763
-0.94368
-0.92345
-0.91758
-0.91072
-0.90061
-0.89321
-0.89636
-0.89619
-0.86706
-0.84187
-0.82033
-0.79413
-0.77277
-0.75187
-0.73478
-0.67844
-0.61563
-0.58896
-0.58363
-0.58620
-0.59240
-0.60936
-0.64680
-0.72956
-0.80906
-0.87833
-0.93132
-0.94913
-0.96036
-0.95625
-0.95934
-0.98595
-0.99546
-1.00302
-1.00792
-0.98467
-0.97021
-0.96739
-0.97581
-0.98477
-0.99911
-0.99705
-0.98932
-1.00058
-0.98545
-0.97736
-0.99267
-1.03635
-1.05254
-0.96696
-0.75864
-0.36994
0.17040
0.72967
1.12768
1.31624
1.23706
0.86944
0.13328
-0.65203
-1.09532
-1.11620
-0.90867
-0.75843
-0.74717
-0.84121
-0.93220
-0.99033
-1.00804
-0.98135
-0.98431
-0.98265
-0.97952
-1.00386
-1.01460
-1.01499
-1.01982
-1.01208
-0.98904
-1.00138
-1.00766
-1.02709
-1.01522
-1.00380
-1.01059
-0.98867
-0.98812
-0.98866
-1.00021
-1.01481
-1.01204
-1.01456
-1.00458
-0.99998
-1.00058
-0.98256
-0.96877
-0.99618
-1.01193
-0.99083
-0.97711
-0.97086
-0.93644
-0.91443
-0.89840
-0.89240
-0.90301
-0.89297
-0.89528
-0.87110
-0.82525
-0.80650
-0.77128
-0.76014
-0.75833
-0.73545
-0.72556
-0.69808
-0.64731
-0.59610
-0.55553
-0.52587
-0.51499
-0.50796
-0.48350
-0.46445
-0.44762
-0.42287
-0.38265
-0.37193
-0.37502
-0.39292
-0.41580
-0.41429
-0.44066
-0.45881
-0.48538
-0.50339
-0.56237
-0.60125
-0.65477
-0.69902
-0.74137
-0.76140
-0.77912
-0.81652
-0.84283
-0.87860
-0.90439
-0.92272
-0.92850
-0.94755
-0.94646
-0.95153
-0.96066
-0.96228
-0.99095
-0.99295
-0.99846
-1.00484
-0.98616
-0.97234
-0.95765
-0.96383
-0.95749
-0.95310
-0.96107
-0.97395
-0.96840
-0.92277
-0.91352
-0.91115
-0.92010
-0.91643
-0.93981
-0.92695
-0.90726
-0.91181
-0.91661
-0.89533
-0.90000
-0.91247
-0.90006
-0.91081
-0.90390
-0.91411
-0.91308
-0.89536
-0.91530
-0.92370
-0.93516
-0.93467
-0.92903
-0.92129
-0.93259
-0.92012
-0.92515
-0.94968
-0.95717
-0.98777
-0.98024
-0.96404
-0.95193
-0.94245
-0.96301
-0.96144
-0.96319
-0.96497
-0.95814
-0.95685
-0.94332
-0.94021
-0.94728
-0.94771
-0.96082
-0.97455
-0.97185
-0.95730
-0.95575
-0.93728
-0.92533
-0.92213
-0.91621
-0.91373
-0.90557
-0.87527
-0.84543
-0.81835
-0.79412
-0.76673
-0.74001
-0.68594
-0.64275
-0.62846
-0.64247
-0.62742
-0.62491
-0.62315
-0.66648
-0.70642
-0.76181
-0.82854
-0.90924
-0.95210
-0.97444
-0.98433
-1.00996
-0.98333
-0.99531
-1.01613
-1.01695
-1.01251
-1.00253
-1.00578
-1.00773
-1.00502
-1.01165
-1.02931
-1.00434
-1.01392
-0.99461
-0.97617
-0.98660
-1.00972
-1.05582
-1.03715
-0.91311
-0.66159
-0.24107
0.32486
0.89621
1.25399
1.35589
1.20739
0.83198
0.18490
-0.57491
-1.05733
-1.12167
-0.95413
-0.78482
-0.74921
-0.82202
-0.91275
-0.99459
-1.00134
-0.97462
-0.96880
-0.96650
-0.99865
-1.01243
-1.01352
-1.02115
-1.01381
-1.00219
-0.99213
-0.98991
-1.01471
-1.00962
-1.03633
-1.03952
-1.03232
-1.01219
-1.00352
-1.00133
-1.00350
-1.02130
-1.03072
-1.03641
-1.02170
-1.00641
-0.99429
-0.98456
-0.99383
-0.99744
-0.99090
-0.98247
-0.97328
-0.96165
-0.94278
-0.92319
-0.92307
-0.93020
-0.92007
-0.91341
-0.90111
-0.88890
-0.84590
-0.83366
-0.80779
-0.78782
-0.77600
-0.76783
-0.73157
-0.69524
-0.66405
-0.61292
-0.58361
-0.56922
-0.55437
-0.53741
-0.51518
-0.48350
-0.44985
-0.40827
-0.39826
-0.37324
-0.37261
-0.35895
-0.35797
-0.34887
-0.34205
-0.33753
-0.35176
-0.38536
-0.42927
-0.49584
-0.54547
-0.59541
-0.63422
-0.67414
-0.70423
-0.74214
-0.78306
-0.82180
-0.87101
-0.89702
-0.92481
-0.91337
-0.90476
-0.90632
-0.91077
-0.94504
-0.96584
-0.97092
-0.96764
-0.96148
-0.95765
-0.94579
-0.94731
-0.94224
-0.97181
-0.99358
-0.98625
-0.96888
-0.92979
-0.93092
-0.91681
-0.93120
-0.93767
-0.93362
-0.94694
-0.92583
-0.91911
-0.89725
-0.88959
-0.88276
-0.89069
-0.89006
-0.92345
-0.91955
-0.91501
-0.90616
-0.89843
-0.90032
-0.89082
-0.90064
-0.90123
-0.91813
-0.90137
-0.90413
-0.88171
-0.88382
-0.90965
-0.91300
-0.92667
-0.94005
-0.93279
-0.93738
-0.93318
-0.93357
-0.93525
-0.94874
-0.97731
-0.98689
-0.96211
-0.95889
-0.94927
-0.93680
-0.94523
-0.95088
-0.95396
-0.97530
-0.97920
-0.97687
-0.97171
-0.96895
-0.95876
-0.95672
-0.96204
-0.96364
-0.97079
-0.96886
-0.95224
-0.94263
-0.92313
-0.91823
-0.89953
-0.89002
-0.86219
-0.84174
-0.82439
-0.79011
-0.72660
-0.66833
-0.63129
-0.62333
-0.62827
-0.66508
-0.66430
-0.67172
-0.68641
-0.73503
-0.78862
-0.88102
-0.97447
-1.03253
-1.03825
-1.03522
-1.01449
-1.01084
-1.01428
-1.01578
-1.03245
-1.04533
-1.04095
-1.03722
-1.04695
-1.03813
-1.03559
-1.03046
-1.04886
-1.06633
-1.04878
-1.02376
-1.02825
-1.01535
-1.03053
-1.08058
-1.10421
-1.06678
-0.91380
-0.65290
-0.25037
0.23136
0.73816
1.10325
1.25812
1.21455
1.02234
0.57118
-0.12607
-0.81378
-1.14959
-1.08836
-0.90194
-0.78183
-0.78591
-0.86904
-0.96885
-1.00431
-1.00884
-1.00963
-1.00399
-1.02315
-1.02800
-1.04796
-1.05420
-1.04416
-1.03928
-1.02128
-1.02804
-1.05115
-1.06385
-1.06392
-1.07036
-1.06070
-1.05391
-1.04394
-1.03843
-1.06318
-1.08218
-1.07642
-1.08760
-1.05539
-1.04457
-1.04462
-1.03842
-1.03237
-1.02734
-1.04016
-1.04319
-1.02889
-1.01279
-0.99811
-0.98933
-0.97878
-0.96522
-0.96654
-0.95601
-0.94934
-0.92932
-0.90191
-0.87747
-0.85696
-0.84742
-0.85208
-0.81232
-0.79611
-0.76195
-0.71921
-0.68037
-0.63921
-0.63024
-0.61659
-0.59308
-0.55559
-0.52595
-0.48528
-0.46777
-0.45674
-0.43012
-0.42179
-0.41522
-0.41345
-0.40257
-0.40057
-0.41116
-0.42660
-0.46187
-0.50681
-0.57266
-0.63388
-0.67754
-0.70247
-0.74648
-0.78505
-0.81553
-0.84292
-0.88428
-0.91539
-0.94327
-0.95867
-0.96547
-0.97619
-0.97516
-0.97752
-1.00023
-1.01769
-1.02851
-1.03852
-1.03739
-1.04414
-1.03743
-1.03670
-1.03756
-1.04906
-1.05410
-1.06170
-1.04684
-1.03522
-1.01832
-0.99770
-1.00083
-1.02714
-1.03433
-1.02560
-1.01700
-1.00840
-0.98214
-0.96840
-0.97049
-0.96292
-0.97506
-0.98427
-0.99272
-0.99211
-0.97212
-0.96408
-0.96143
-0.97532
-0.98757
-0.99673
-0.99909
-1.00351
-0.99486
-0.98627
-0.99804
-1.01275
-1.02097
-1.04503
-1.05079
-1.04322
-1.03464
-1.01973
-1.01273
-1.01032
-1.01587
-1.03202
-1.04156
-1.06323
-1.05447
-1.02288
-1.02833
-1.02391
-1.03158
-1.04723
-1.05546
-1.06327
-1.05998
-1.05205
-1.03517
-1.02828
-1.03376
-1.03083
-1.03687
-1.02807
-1.00893
-0.97170
-0.92123
-0.90271
-0.88446
-0.86475
-0.84996
-0.80260
-0.74897
-0.69018
-0.67727
-0.67782
-0.67318
-0.70226
-0.72689
-0.76829
-0.81211
-0.89541
-0.95072
-1.01333
-1.06112
-1.06730
-1.09004
-1.09038
-1.09923
-1.10821
-1.10756
-1.09197
-1.09156
-1.09744
-1.09867
-1.10927
-1.12179
-1.12654
-1.11054
-1.10936
-1.10156
-1.09541
-1.09236
-1.08978
-1.12198
-1.16249
-1.17715
-1.08447
-0.90736
-0.59563
-0.12281
0.43883
0.93570
1.20453
1.21792
0.94614
0.36383
-0.42342
-1.07007
-1.26176
-1.14099
-0.93780
-0.85685
-0.90532
-0.97590
-1.04005
-1.09870
-1.09804
-1.10122
-1.11315
-1.10972
-1.11105
-1.10652
-1.10464
-1.09639
-1.09618
-1.10693
-1.12013
-1.12380
-1.13521
-1.12173
-1.11126
-1.09083
-1.08077
-1.08978
-1.09119
-1.09712
-1.10507
-1.10241
-1.09433
-1.06698
-1.07771
-1.08088
-1.07465
-1.08012
-1.07698
-1.07159
-1.05029
-1.04376
-1.02288
-1.02808
-1.02209
-1.02803
-1.01063
-0.98941
-0.97246
-0.93037
-0.89980
-0.87474
-0.87775
-0.87585
-0.83288
-0.80500
-0.76461
-0.71891
-0.68899
-0.63619
-0.61027
-0.59348
-0.57504
-0.54354
-0.51823
-0.49517
-0.45864
-0.42831
-0.41969
-0.41215
-0.41632
-0.42048
-0.41652
-0.44898
-0.45968
-0.48054
-0.52230
-0.54908
-0.61187
-0.65838
-0.71328
-0.76038
-0.77501
-0.80202
-0.83672
-0.86672
-0.90175
-0.93746
-0.96789
-0.97533
-0.97649
-0.99245
-0.97470
-0.99265
-1.00519
-1.00017
-1.02031
-1.02721
-1.01542
-1.01543
-0.99894
-1.00171
-1.01390
-1.03315
-1.02160
-1.03075
-1.00996
-0.96870
-0.95519
-0.93803
-0.94813
-0.96656
-0.97113
-0.97579
-0.95588
-0.86725
-0.73397
-0.53000
-0.29059
-0.03103
0.26944
0.58570
0.94487
1.31591
1.63859
1.87117
2.04156
2.12697
2.15609
2.09630
2.02610
1.89862
1.75934
1.70686
1.72368
1.73708
1.71863
1.63773
1.45553
1.21700
0.92678
0.50330
-0.05159
-0.63610
-1.05295
-1.19522
-1.19790
-1.17030
-1.18687
-1.24823
-1.31928
-1.37923
-1.42222
-1.46135
-1.47361
-1.49204
-1.52335
-1.54552
-1.54343
-1.55299
-1.57372
-1.58910
-1.62217
-1.63249
-1.66582
-1.65486
-1.66022
-1.66985
-1.68870
-1.70610
-1.73055
-1.72638
-1.73479
-1.72361
-1.73209
-1.73885
-1.74679
-1.75048
-1.72392
-1.73740
-1.74718
-1.76694
-1.80450
-1.85152
-1.88527
-1.92547
-2.00008
-2.10125
-2.19149
-2.30209
-2.37783
-2.43405
-2.45878
-2.48482
-2.51477
-2.51994
-2.51407
-2.51611
-2.47831
-2.43101
-2.38211
-2.33539
-2.26922
-2.21151
-2.14357
-2.05740
-1.96857
-1.86467
-1.77374
-1.69431
-1.60000
-1.54259
-1.49071
-1.45829
-1.40907
-1.36552
-1.33115
-1.29888
-1.27568
-1.29038
-1.30898
-1.30660
-1.29649
-1.30716
-1.30336
-1.28074
-1.26044
-1.27236
-1.28468
-1.28847
-1.29579
-1.26901
-1.27178
-1.23882
-1.23419
-1.23840
-1.24644
-1.25789
-1.26059
-1.24273
-1.24800
-1.24781
-1.22764
-1.21694
-1.22304
-1.23121
-1.22952
-1.22919
-1.22082
-1.20058
-1.18932
-1.19374
-1.18970
-1.19353
-1.19750
-1.19224
-1.19069
-1.17286
-1.16376
-1.15980
-1.15717
-1.17312
-1.18963
-1.19139
-1.18643
-1.16918
-1.15316
-1.13816
-1.12324
-1.14440
-1.16400
-1.16947
-1.18093
-1.15421
-1.15003
-1.14728
-1.12473
-1.12058
-1.14567
-1.15054
-1.15871
-1.14810
-1.13564
-1.12626
-1.11862
-1.10872
-1.13923
-1.14226
-1.15335
-1.16411
-1.13256
-1.11435
-1.10398
-1.11645
-1.11306
-1.12299
-1.13355
-1.13927
-1.12619
-1.11747
-1.09808
-1.09828
-1.10445
-1.11291
-1.12421
-1.12615
-1.11010
-1.09920
-1.07626
-1.07085
-1.08600
-1.11284
-1.12318
-1.10600
-1.11417
-1.10392
-1.08545
-1.07344
-1.06982
-1.08126
-1.09754
-1.10884
-1.10610
-1.09819
-1.07888
-1.06491
-1.06569
-1.08301
-1.09716
-1.10498
-1.09788
-1.10751
-1.09479
-1.10188
-1.08891
-1.07511
-1.07812
-1.08514
-1.10452
-1.10067
-1.10392
-1.06805
-1.04297
-1.05838
-1.06828
-1.08553
-1.08207
-1.08812
-1.08183
-1.06360
-1.06485
-1.07120
-1.05255
-1.06581
-1.07787
-1.08381
-1.08872
-1.06733
-1.04623
-1.04490
-1.05568
-1.06041
-1.06857
-1.08659
-1.09165
-1.07236
-1.06551
-1.04768
-1.05147
-1.07203
-1.08450
-1.09257
-1.08686
-1.07349
-1.06890
-1.05373
-1.04282
-1.05039
-1.05950
-1.07218
-1.06956
-1.07809
-1.06305
-1.05795
-1.05411
-1.03457
-1.05033
-1.06296
-1.08073
-1.08369
-1.06127
-1.04836
-1.03790
-1.03150
-1.03833
-1.06636
-1.06540
-1.07643
-1.07237
-1.05648
-1.03733
-1.03108
-1.04439
-1.04290
-1.06312
-1.05888
-1.06589
-1.05058
-1.04801
-1.03635
-1.02975
-1.04159
-1.05317
-1.05677
-1.05888
-1.03675
-1.01197
-0.98826
-0.97001
-0.93733
-0.92176
-0.92023
-0.90526
-0.87239
-0.82956
-0.77670
-0.71004
-0.67647
-0.66414
-0.68275
-0.70243
-0.70437
-0.71856
-0.72410
-0.76812
-0.83960
-0.94038
-1.01756
-1.08227
-1.08545
-1.08325
-1.05198
-1.02660
-1.04294
-1.05272
-1.06159
-1.09860
-1.08457
-1.08197
-1.07712
-1.06298
-1.07746
-1.08509
-1.10825
-1.13992
-1.16673
-1.11779
-0.94992
-0.63722
-0.15696
0.42550
0.93948
1.22939
1.24734
0.98822
0.46543
-0.30701
-0.95694
-1.20793
-1.10376
-0.90320
-0.80802
-0.85431
-0.93609
-1.01713
-1.05424
-1.06220
-1.04597
-1.06451
-1.08431
-1.08959
-1.10758
-1.10832
-1.11175
-1.11619
-1.10076
-1.10499
-1.11015
-1.12936
-1.12579
-1.12465
-1.11544
-1.10108
-1.10495
-1.11354
-1.12946
-1.14330
-1.14391
-1.13933
-1.12883
-1.10668
-1.11182
-1.12591
-1.13481
-1.13924
-1.13485
-1.11648
-1.10623
-1.08717
-1.07972
-1.08328
-1.07376
-1.08364
-1.08126
-1.06328
-1.04841
-1.03070
-0.99255
-0.98099
-0.98662
-0.95952
-0.95330
-0.93872
-0.90832
-0.88800
-0.82823
-0.81446
-0.78927
-0.76883
-0.75389
-0.72479
-0.71126
-0.66831
-0.62899
-0.59531
-0.57362
-0.57208
-0.56954
-0.55686
-0.53741
-0.49906
-0.47934
-0.47991
-0.47804
-0.52151
-0.55295
-0.59615
-0.62553
-0.63501
-0.66747
-0.70105
-0.74588
-0.77787
-0.82711
-0.87034
-0.89732
-0.92488
-0.93356
-0.93765
-0.94324
-0.95866
-0.99082
-1.00482
-1.01312
-1.02470
-1.02428
-1.01230
-1.01127
-0.99725
-0.99855
-1.02220
-1.02445
-1.02052
-1.01379
-0.98582
-0.97400
-0.97114
-0.97099
-0.98165
-0.98472
-0.98136
-0.98991
-0.96513
-0.95260
-0.94638
-0.95233
-0.96006
-0.96625
-0.98216
-0.98427
-0.97843
-0.98317
-0.97763
-0.96852
-0.98375
-0.99686
-1.01429
-1.01783
-1.02065
-1.02204
-1.01462
-1.00727
-1.01986
-1.02977
-1.04576
-1.05699
-1.05324
-1.06385
-1.06496
-1.05410
-1.04350
-1.06897
-1.07230
-1.08707
-1.08441
-1.08213
-1.07825
-1.08051
-1.08827
-1.08269
-1.08587
-1.09274
-1.10178
-1.10361
-1.08450
-1.06925
-1.07328
-1.08228
-1.09161
-1.09664
-1.09513
-1.10066
-1.08967
-1.07983
-1.06345
-1.07715
-1.07021
-1.09043
-1.10788
-1.07096
-1.08020
-1.05679
-0.99652
-0.97912
-0.95772
-0.95290
-0.94839
-0.92256
-0.88507
-0.81057
-0.74147
-0.70508
-0.71401
-0.75813
-0.77547
-0.77765
-0.79923
-0.81613
-0.85891
-0.93856
-1.04289
-1.11510
-1.15116
-1.16256
-1.13916
-1.12755
-1.14248
-1.13092
-1.12814
-1.13562
-1.14225
-1.16676
-1.16126
-1.14956
-1.14149
-1.12526
-1.11224
-1.12018
-1.13127
-1.14601
-1.14781
-1.14348
-1.14768
-1.15439
-1.16005
-1.15937
-1.06062
-0.85487
-0.48054
0.03938
0.59586
1.02881
1.21543
1.18315
0.88053
0.26407
-0.52441
-1.12106
-1.27604
-1.13605
-0.94228
-0.87013
-0.92090
-1.03613
-1.12879
-1.14474
-1.14526
-1.13037
-1.11793
-1.11526
-1.12170
-1.12572
-1.15512
-1.16336
-1.15911
-1.15113
-1.14286
-1.13631
-1.13490
-1.14519
-1.15864
-1.16081
-1.16963
-1.16517
-1.14168
-1.12683
-1.11849
-1.11993
-1.12889
-1.13902
-1.13713
-1.13482
-1.11166
-1.10981
-1.09761
-1.09612
-1.08682
-1.09444
-1.09432
-1.07992
-1.06514
-1.03749
-1.00193
-1.00678
-0.97778
-0.98306
-0.97437
-0.96923
-0.96438
-0.90270
-0.85338
-0.83763
-0.81852
-0.79933
-0.78831
-0.76334
-0.73262
-0.70528
-0.66226
-0.61553
-0.58324
-0.57414
-0.55693
-0.54649
-0.52880
-0.50295
-0.47528
-0.48427
-0.46694
-0.47724
-0.51954
-0.54365
-0.58785
-0.60662
-0.64472
-0.69058
-0.71466
-0.76337
-0.82623
-0.85750
-0.91331
-0.93681
-0.95842
-0.96354
-0.98396
-0.99922
-1.02907
-1.04605
-1.06584
-1.08670
-1.08159
-1.07414
-1.06972
-1.08515
-1.07915
-1.09401
-1.10427
-1.11202
-1.09422
-1.08497
-1.06468
-1.04338
-1.05523
-1.05399
-1.04369
-1.04835
-1.03630
-1.01493
-1.00451
-0.99925
-0.99995
-0.98858
-0.94784
-0.84524
-0.64865
-0.39738
-0.10145
0.20487
0.54004
0.87963
1.24920
1.56893
1.82139
1.98906
2.06250
2.07082
2.02692
1.91105
1.76362
1.68509
1.67865
1.67573
1.62611
1.45746
1.18848
0.84474
0.37330
-0.25343
-0.80866
-1.15329
-1.24206
-1.22767
-1.19225
-1.22098
-1.29178
-1.38962
-1.44443
-1.51773
-1.51444
-1.50566
-1.52515
-1.53074
-1.55815
-1.57895
-1.60419
-1.62099
-1.64360
-1.65079
-1.66835
-1.68992
-1.71448
-1.74103
-1.77498
-1.79623
-1.83288
-1.84301
-1.85449
-1.85275
-1.86032
-1.88363
-1.89852
-1.91509
-1.92805
-1.94574
-1.95856
-1.94583
-1.94557
-1.95194
-1.96656
-1.98179
-2.01416
-2.05854
-2.10142
-2.12267
-2.15563
-2.21638
-2.28803
-2.37624
-2.45954
-2.52107
-2.52500
-2.52270
-2.49133
-2.45188
-2.42154
-2.38248
-2.33394
-2.26407
-2.18638
-2.09938
-2.00456
-1.89659
-1.81889
-1.74379
-1.67071
-1.60511
-1.52389
-1.46331
-1.42196
-1.37970
-1.35065
-1.34833
-1.33561
-1.35341
-1.35467
-1.34033
-1.33155
-1.31432
-1.30468
-1.31039
-1.31867
-1.31753
-1.32665
-1.31846
-1.30116
-1.27949
-1.27866
-1.27176
-1.28179
-1.28990
-1.29095
-1.30114
-1.29258
-1.26530
-1.26257
-1.25676
-1.27305
-1.26980
-1.27518
-1.27050
-1.26525
-1.24293
-1.23294
-1.22662
-1.22767
-1.23023
-1.24411
-1.24385
-1.24960
-1.23182
-1.22148
-1.21826
-1.23105
-1.23973
-1.22920
-1.24876
-1.25336
-1.23314
-1.22571
-1.22567
-1.22120
-1.22800
-1.22265
-1.22483
-1.23208
-1.22829
-1.21694
-1.19473
-1.19653
-1.21784
-1.22644
-1.23587
-1.22580
-1.22857
-1.20157
-1.18879
-1.18630
-1.17705
-1.20133
-1.20306
-1.21210
-1.21280
-1.19557
-1.19312
-1.17798
-1.17414
-1.18603
-1.18602
-1.20528
-1.20290
-1.18727
-1.15904
-1.14884
-1.14678
-1.15544
-1.16852
-1.19489
-1.19387
-1.18284
-1.15707
-1.17005
-1.16233
-1.15314
-1.16059
-1.17018
-1.17530
-1.18055
-1.17640
-1.16499
-1.13634
-1.14280
-1.14207
-1.14659
-1.15763
-1.15452
-1.15581
-1.13649
-1.12704
-1.12302
-1.12952
-1.15525
-1.15638
-1.16571
-1.15428
-1.14346
-1.14340
-1.12902
-1.12329
-1.13294
-1.14466
-1.15392
-1.16323
-1.14395
-1.13263
-1.12843
-1.13151
-1.12795
-1.13968
-1.14333
-1.14915
-1.14667
-1.12108
-1.11532
-1.11462
-1.12535
-1.12046
-1.14317
-1.13657
-1.14902
-1.13222
-1.12833
-1.11226
-1.12393
-1.13092
-1.13383
-1.15546
-1.16488
-1.12546
-1.09637
-1.09570
-1.08817
-1.09203
-1.11326
-1.13036
-1.11883
-1.11434
-1.09655
-1.08317
-1.09729
-1.10180
-1.11638
-1.12047
-1.11516
-1.10928
-1.09733
-1.09997
-1.09271
-1.09356
-1.10841
-1.11804
-1.10735
-1.12173
-1.08779
-1.08641
-1.07776
-1.06929
-1.08107
-1.09283
-1.10083
-1.10234
-1.10180
-1.09184
-1.06804
-1.06853
-1.07181
-1.07730
-1.08474
-1.08478
-1.09355
-1.07993
-1.08682
-1.06875
-1.09032
-1.07893
-1.07009
-1.08530
-1.08947
-1.07960
-1.06659
-1.04365
-1.01678
-1.02021
-1.01214
-1.00006
-0.98435
-0.94472
-0.91260
-0.88054
-0.83535
-0.78411
-0.73104
-0.70271
-0.69131
-0.70779
-0.72469
-0.71963
-0.72294
-0.77294
-0.84787
-0.96169
-1.04120
-1.09184
-1.10226
-1.08338
-1.07278
-1.06750
-1.07136
-1.10133
-1.11690
-1.12181
-1.11258
-1.10084
-1.08240
-1.06578
-1.07940
-1.10541
-1.12905
-1.16684
-1.16632
-1.04449
-0.79920
-0.39575
0.12611
0.68229
1.09819
1.25521
1.12813
0.70066
-0.02895
-0.79631
-1.20668
-1.20230
-1.01196
-0.86828
-0.87765
-0.96381
-1.03955
-1.07898
-1.10182
-1.11860
-1.12473
-1.13036
-1.15014
-1.15568
-1.14673
-1.13258
-1.12159
-1.13323
-1.14139
-1.15431
-1.17460
-1.16205
-1.17134
-1.15591
-1.13671
-1.15624
-1.16488
-1.16598
-1.17240
-1.16988
-1.15500
-1.14322
-1.13558
-1.12441
-1.14168
-1.14899
-1.15505
-1.15136
-1.14477
-1.12302
-1.10817
-1.09140
-1.09345
-1.09355
-1.08988
-1.08766
-1.06332
-1.05122
-1.01995
-1.00221
-0.99914
-0.97270
-0.97284
-0.95752
-0.92791
-0.89939
-0.87274
-0.83585
-0.80771
-0.80322
-0.78988
-0.78023
-0.75729
-0.74291
-0.71692
-0.67879
-0.64295
-0.61715
-0.60772
-0.59889
-0.59299
-0.58082
-0.56437
-0.54057
-0.53052
-0.53682
-0.55713
-0.57576
-0.62088
-0.65056
-0.67310
-0.70487
-0.72914
-0.75192
-0.80876
-0.82619
-0.84613
-0.87898
-0.89107
-0.89893
-0.90261
-0.91608
-0.94518
-0.95887
-0.96938
-0.98840
-0.99056
-0.97700
-0.96008
-0.94201
-0.95140
-0.95584
-0.96676
-0.97644
-0.97107
-0.96427
-0.95447
-0.95870
-0.94105
-0.92324
-0.92051
-0.93557
-0.93551
-0.93695
-0.91244
-0.91323
-0.90188
-0.91744
-0.92309
-0.91924
-0.92430
-0.94241
-0.91860
-0.90958
-0.91123
-0.90335
-0.91443
-0.93285
-0.94634
-0.96303
-0.96758
-0.94690
-0.94144
-0.93461
-0.93943
-0.94813
-0.97065
-0.97694
-0.98403
-0.97709
-0.94968
-0.93743
-0.96188
-0.96767
-0.99720
-0.99886
-1.01677
-1.00625
-0.99366
-0.98428
-0.99277
-1.01468
-1.01470
-1.02624
-1.02331
-1.01862
-1.00723
-0.98248
-0.97534
-0.99411
-0.99752
-1.00242
-1.00500
-1.00088
-0.98411
-0.98320
-0.96341
-0.96851
-0.96358
-0.98307
-0.99528
-0.99311
-0.98784
-0.97626
-0.96468
-0.96040
-0.96374
-0.97535
-0.97473
-0.97245
-0.94055
-0.89985
-0.84804
-0.81904
-0.81118
-0.79803
-0.78299
-0.74992
-0.70892
-0.63613
-0.59363
-0.59501
-0.63449
-0.64464
-0.63860
-0.65763
-0.68907
-0.73375
-0.80202
-0.86857
-0.93067
-0.97472
-0.98192
-0.99051
-1.00946
-0.99868
-0.99099
-0.97432
-0.97642
-0.99967
-1.02091
-1.01487
-1.00738
-1.00187
-0.99862
-0.98080
-0.96305
-0.96064
-0.95958
-0.98485
-0.98775
-1.03001
-1.05097
-0.97498
-0.79363
-0.45527
0.00437
0.53237
1.01621
1.29105
1.32620
1.14872
0.70539
0.01238
-0.68834
-1.09953
-1.09496
-0.90590
-0.76960
-0.72771
-0.80513
-0.88043
-0.94971
-0.97664
-0.97671
-0.97057
-0.98623
-0.98174
-0.98420
-0.96818
-0.95858
-0.96990
-0.98647
-0.99026
-0.98772
-0.99112
-0.96974
-0.96592
-0.96345
-0.96631
-0.97601
-0.99411
-0.97800
-0.98572
-0.96681
-0.95880
-0.94068
-0.95154
-0.94638
-0.96108
-0.96185
-0.97296
-0.94165
-0.92692
-0.91179
-0.89061
-0.89923
-0.89129
-0.90414
-0.89349
-0.87908
-0.84756
-0.81643
-0.79109
-0.78508
-0.76524
-0.76076
-0.73735
-0.71780
-0.68297
-0.64886
-0.62400
-0.60018
-0.57759
-0.56204
-0.53927
-0.52287
-0.48699
-0.46116
-0.43077
-0.40245
-0.38326
-0.36738
-0.35815
-0.35556
-0.33476
-0.33107
-0.32611
-0.30860
-0.33643
-0.37419
-0.44041
-0.48218
-0.51714
-0.56868
-0.59930
-0.63977
-0.68230
-0.71304
-0.73991
-0.78534
-0.84410
-0.84621
-0.83472
-0.83388
-0.84438
-0.87795
-0.88991
-0.91998
-0.91057
-0.91903
-0.91371
-0.90385
-0.89272
-0.89377
-0.91914
-0.91450
-0.92367
-0.90643
-0.89911
-0.87331
-0.87232
-0.85880
-0.86123
-0.86217
-0.85796
-0.86275
-0.86173
-0.85824
-0.85194
-0.83595
-0.83595
-0.79571
-0.68893
-0.52316
-0.29690
-0.03859
0.24342
0.54628
0.87325
1.20807
1.52429
1.76775
1.98309
2.11967
2.18993
2.20764
2.15973
2.06889
1.95912
1.85263
1.80678
1.84604
1.88025
1.83660
1.67387
1.43478
1.16082
0.81373
0.35599
-0.22280
-0.73341
-1.01015
-1.08509
-1.07311
-1.05789
-1.12332
-1.19246
-1.26177
-1.30132
-1.31945
-1.33498
-1.33762
-1.36855
-1.42069
-1.43675
-1.45664
-1.46352
-1.48699
-1.48884
-1.49407
-1.52614
-1.55021
-1.58238
-1.59992
-1.61956
-1.62599
-1.63094
-1.65373
-1.68572
-1.71558
-1.71728
-1.73329
-1.74636
-1.75600
-1.77093
-1.76886
-1.78315
-1.80828
-1.79981
-1.79380
-1.79312
-1.81800
-1.86570
-1.89986
-1.93069
-1.97827
-2.03397
-2.11012
-2.18211
-2.26874
-2.31702
-2.34599
-2.37989
-2.38742
-2.38948
-2.40438
-2.38692
-2.37448
-2.32874
-2.28063
-2.23268
-2.17627
-2.10835
-2.04493
-1.99222
-1.90987
-1.82110
-1.72599
-1.64108
-1.55854
-1.48670
-1.42990
-1.38509
-1.34669
-1.30571
-1.26865
-1.23600
-1.22352
-1.19233
-1.21286
-1.22410
-1.22622
-1.22677
-1.20531
-1.19870
-1.19029
-1.17049
-1.19467
-1.17471
-1.19090
-1.20915
-1.19977
-1.18068
-1.18216
-1.15823
-1.14716
-1.16332
-1.17162
-1.18753
-1.17832
-1.16764
-1.14956
-1.13629
-1.13578
-1.13961
-1.14129
-1.14193
-1.14901
-1.14802
-1.13685
-1.12177
-1.12963
-1.12340
-1.13176
-1.14483
-1.14408
-1.12561
-1.11861
-1.10699
-1.09650
-1.11031
-1.11779
-1.12669
-1.12918
-1.12382
-1.11085
-1.08731
-1.07657
-1.08526
-1.11222
-1.11105
-1.11063
-1.11733
-1.10436
-1.08758
-1.07989
-1.07110
-1.08832
-1.09215
-1.12525
-1.11390
-1.09327
-1.08618
-1.07231
-1.07495
-1.07736
-1.08868
-1.08895
-1.09256
-1.08830
-1.06744
-1.05386
-1.04484
-1.04350
-1.05960
-1.07041
-1.07206
-1.08167
-1.08373
-1.06189
-1.04886
-1.03748
-1.06189
-1.07914
-1.06296
-1.06913
-1.06021
-1.05764
-1.04362
-1.04063
-1.03454
-1.03848
-1.05959
-1.05167
-1.05972
-1.03990
-1.02805
-1.01903
-1.01897
-1.04983
-1.06144
-1.05946
-1.05786
-1.04617
-1.03343
-1.01356
-1.01349
-1.01839
-1.03188
-1.04302
-1.05391
-1.04956
-1.05254
-1.03543
-1.02889
-1.02418
-1.03015
-1.03937
-1.04695
-1.04911
-1.03293
-1.02795
-1.02060
-1.02951
-1.04071
-1.04024
-1.04262
-1.03231
-1.02467
-1.01592
-1.01281
-1.00762
-1.01224
-1.02991
-1.03900
-1.04531
-1.04468
-1.03613
-1.01992
-1.00482
-1.00757
-1.01931
-1.03580
-1.04335
-1.03129
-1.01440
-1.00315
-1.00519
-1.00416
-1.02190
-1.02456
-1.03855
-1.04350
-1.02553
-1.00345
-0.99369
-0.98402
-0.98014
-0.99305
-1.00923
-1.01633
-0.99983
-1.00010
-0.98011
-0.97540
-0.98084
-0.99036
-1.00618
-1.00562
