-0.06789
-0.08362
-0.07830
-0.08084
-0.07995
-0.07861
-0.07528
-0.08431
-0.05937
-0.04924
-0.05577
-0.07060
-0.07567
-0.08167
-0.08273
-0.09191
-0.07789
-0.06639
-0.06180
-0.07170
-0.07589
-0.07886
-0.07083
-0.06263
-0.06000
-0.05317
-0.05006
-0.05062
-0.06120
-0.06723
-0.07451
-0.06462
-0.05954
-0.05509
-0.05005
-0.05541
-0.06759
-0.05557
-0.04968
-0.04511
-0.04734
-0.05135
-0.04684
-0.05172
-0.05456
-0.07838
-0.07609
-0.06084
-0.05419
-0.05034
-0.03611
-0.01588
-0.01881
-0.01432
0.00032
0.01816
0.03016
0.06091
0.08164
0.11480
0.13458
0.12519
0.10121
0.10047
0.09765
0.10310
0.10321
0.07800
0.04763
-0.00165
-0.04302
-0.07686
-0.09411
-0.08220
-0.07623
-0.08399
-0.09189
-0.10737
-0.12237
-0.13135
-0.13845
-0.13268
-0.12044
-0.12359
-0.12440
-0.12842
-0.15567
-0.11957
-0.00592
0.21930
0.53538
0.91421
1.29942
1.58453
1.64758
1.41914
0.98614
0.48550
0.07885
-0.15403
-0.22540
-0.19058
-0.12514
-0.11332
-0.13822
-0.15756
-0.18135
-0.18895
-0.17686
-0.16170
-0.17974
-0.18029
-0.19312
-0.21719
-0.21185
-0.17608
-0.15651
-0.14706
-0.16831
-0.17109
-0.17118
-0.19143
-0.18654
-0.15543
-0.13230
-0.13069
-0.13518
-0.13801
-0.14377
-0.15372
-0.14690
-0.14833
-0.11988
-0.09880
-0.08635
-0.07845
-0.08216
-0.08104
-0.09013
-0.07595
-0.06756
-0.04394
-0.02354
-0.02124
-0.02275
-0.03458
-0.03124
-0.03568
-0.03489
-0.03308
-0.02346
-0.00817
-0.01955
-0.03430
-0.02542
-0.00943
0.01200
0.04326
0.06856
0.05698
0.06443
0.07246
0.05852
0.04773
0.03743
0.04374
0.04187
0.04284
0.04486
0.02498
0.02567
0.02249
0.02783
0.03142
0.03562
0.03010
0.03230
0.03501
0.02999
0.02949
0.02681
0.02992
0.03549
0.04011
0.04448
0.04049
0.02488
0.02548
0.04901
0.04928
0.05124
0.05881
0.05543
0.05632
0.04849
0.03941
0.04113
0.05457
0.06070
0.07602
0.07429
0.05846
0.04147
0.03646
0.03388
0.04699
0.04700
0.05385
0.06332
0.05907
0.06820
0.05768
0.05378
0.07472
0.10010
0.12261
0.13122
0.15270
0.18374
0.19302
0.20358
0.21393
0.20909
0.21168
0.21505
0.21953
0.21616
0.18190
0.14374
0.09777
0.06929
0.05370
0.03756
0.04235
0.02229
0.01277
0.00780
-0.00759
-0.00803
-0.02012
-0.02008
-0.01265
-0.01367
-0.00885
-0.02974
-0.03896
-0.06166
-0.05302
0.02999
0.18157
0.39544
0.70858
1.08338
1.44450
1.71358
1.75307
1.50505
1.06327
0.56964
0.18226
-0.05479
-0.11141
-0.09060
-0.03205
-0.01545
-0.04736
-0.07927
-0.11723
-0.12409
-0.11961
-0.12199
-0.13491
-0.12372
-0.12490
-0.11881
-0.11744
-0.11077
-0.12810
-0.14059
-0.14218
-0.12731
-0.11919
-0.11939
-0.10575
-0.10681
-0.11423
-0.12284
-0.12317
-0.10984
-0.10096
-0.08824
-0.07619
-0.06556
-0.07829
-0.09631
-0.09438
-0.08831
-0.07728
-0.06551
-0.04304
-0.02625
-0.02932
-0.03852
-0.05054
-0.04769
-0.03905
-0.02351
0.00039
0.00921
0.00201
-0.01886
-0.02728
-0.03169
-0.02086
-0.02871
-0.00816
0.00995
0.00205
0.00233
-0.00300
0.00103
0.01453
0.01719
0.04265
0.06651
0.07191
0.06185
0.03626
0.02243
0.02579
0.01695
0.01619
0.03173
0.03370
0.04162
0.03723
0.02181
0.01576
0.00192
-0.00461
-0.00566
0.00529
0.02602
0.04005
0.03214
0.01525
-0.00710
0.00190
0.00603
0.01487
0.02950
0.02345
0.02761
0.01625
0.01556
0.02538
0.02211
0.03445
0.02990
0.02524
0.03419
0.03391
0.03739
0.03959
0.03705
0.03759
0.03371
0.02956
0.03372
0.02265
0.01508
0.01830
0.02809
0.03797
0.02498
0.04475
0.05853
0.05511
0.05309
0.06656
0.09153
0.11652
0.14226
0.16274
0.18706
0.20740
0.20022
0.16910
0.15262
0.16775
0.18960
0.20700
0.18120
0.15310
0.10879
0.06605
0.02601
0.01558
0.00254
-0.00207
-0.02117
-0.03951
-0.03969
-0.05432
-0.07742
-0.08811
-0.07618
-0.07790
-0.06085
-0.06933
-0.07008
-0.07610
-0.10669
-0.11222
-0.06540
0.06819
0.26148
0.53658
0.88499
1.27370
1.61431
1.74423
1.58714
1.20918
0.72317
0.27061
-0.02477
-0.14710
-0.14538
-0.09915
-0.08105
-0.09435
-0.12196
-0.15153
-0.17084
-0.18019
-0.16480
-0.17212
-0.18344
-0.17458
-0.17255
-0.16652
-0.17571
-0.18181
-0.18704
-0.17997
-0.18083
-0.16356
-0.15759
-0.15161
-0.14980
-0.16505
-0.15549
-0.17700
-0.16719
-0.16458
-0.15099
-0.12592
-0.12466
-0.13620
-0.13633
-0.13384
-0.14228
-0.12876
-0.11236
-0.10763
-0.09308
-0.09846
-0.09324
-0.09214
-0.09343
-0.09994
-0.08552
-0.05351
-0.03370
-0.02471
-0.02863
-0.04109
-0.05015
-0.06616
-0.06358
-0.04115
-0.02899
-0.01366
-0.01410
-0.01284
-0.01601
-0.01775
-0.01544
0.00280
0.01629
0.02730
0.02963
0.01513
0.00229
-0.01701
-0.03100
-0.02424
-0.02111
-0.01729
-0.01695
-0.01471
-0.03430
-0.04370
-0.05594
-0.06430
-0.05982
-0.04486
-0.02380
-0.01129
-0.02005
-0.03687
-0.04870
-0.05369
-0.04524
-0.03438
-0.01938
-0.01519
-0.01422
-0.02583
-0.03975
-0.04576
-0.03864
-0.02894
-0.01103
0.00256
-0.00255
-0.01079
-0.03446
-0.03264
-0.03663
-0.04892
-0.05032
-0.03739
-0.03096
-0.02761
-0.02827
-0.03616
-0.03120
-0.01601
-0.01074
0.02069
0.04408
0.04796
0.04565
0.04739
0.07110
0.09171
0.10883
0.12893
0.14113
0.11794
0.11516
0.11854
0.11948
0.10397
0.07624
0.03828
0.01106
-0.01008
-0.02713
-0.05685
-0.08028
-0.09148
-0.09476
-0.10392
-0.10091
-0.09950
-0.10153
-0.11677
-0.12735
-0.13108
-0.11727
-0.10827
-0.10877
-0.13055
-0.14219
-0.10396
-0.01409
0.14832
0.39778
0.73900
1.13653
1.49517
1.69087
1.63568
1.30473
0.86125
0.40356
0.05488
-0.11107
-0.15741
-0.12896
-0.08565
-0.06852
-0.11864
-0.16764
-0.18802
-0.20574
-0.18702
-0.18425
-0.18904
-0.17457
-0.18864
-0.19955
-0.20458
-0.20373
-0.19056
-0.18496
-0.18631
-0.17947
-0.17955
-0.18236
-0.18391
-0.19419
-0.18936
-0.17804
-0.17871
-0.17125
-0.17874
-0.17117
-0.16882
-0.17464
-0.16548
-0.14231
-0.15070
-0.14773
-0.14056
-0.13476
-0.13027
-0.13283
-0.11669
-0.10735
-0.08527
-0.09335
-0.09694
-0.09611
-0.10212
-0.08596
-0.07770
-0.07144
-0.05684
-0.04777
-0.05077
-0.07208
-0.07383
-0.07362
-0.06804
-0.06258
-0.03811
-0.03653
-0.02531
-0.02056
-0.02978
-0.04463
-0.03530
-0.01628
-0.00217
0.00858
0.01678
0.01238
-0.00916
-0.01234
-0.02476
-0.03010
-0.03480
-0.00858
-0.00432
-0.01134
-0.02372
-0.03108
-0.04137
-0.04008
-0.03690
-0.03394
-0.01536
-0.00996
-0.01233
-0.01529
-0.03252
-0.04239
-0.04167
-0.03985
-0.02031
-0.01714
-0.01812
-0.01691
-0.02806
-0.02090
-0.02841
-0.03640
-0.03042
-0.00887
-0.01078
-0.02865
-0.02473
-0.03623
-0.03371
-0.02775
-0.02624
-0.02590
-0.04180
-0.04443
-0.05537
-0.05953
-0.04289
-0.02822
-0.01335
0.00673
0.00879
0.01555
0.01861
0.03228
0.05334
0.08067
0.13282
0.14778
0.14920
0.12334
0.10243
0.09581
0.09665
0.08263
0.08162
0.06378
0.01643
-0.00976
-0.04784
-0.06189
-0.08795
-0.10298
-0.10255
-0.08924
-0.08708
-0.09476
-0.11172
-0.11871
-0.12456
-0.13817
-0.13437
-0.12290
-0.12975
-0.14096
-0.16164
-0.15638
-0.07113
0.05237
0.25236
0.54941
0.92897
1.31561
1.59197
1.65617
1.43779
1.03162
0.56850
0.17630
-0.06504
-0.15892
-0.15253
-0.10570
-0.08512
-0.09370
-0.14122
-0.17215
-0.19122
-0.20012
-0.19219
-0.18648
-0.19685
-0.20075
-0.19886
-0.18907
-0.18301
-0.18937
-0.17993
-0.18003
-0.20346
-0.20436
-0.19220
-0.18469
-0.17085
-0.15483
-0.15508
-0.14927
-0.16488
-0.16900
-0.17977
-0.16994
-0.16706
-0.15613
-0.14454
-0.13347
-0.12877
-0.13791
-0.14748
-0.15061
-0.15795
-0.13992
-0.11883
-0.10392
-0.10428
-0.09139
-0.09626
-0.10661
-0.11231
-0.09840
-0.07338
-0.07241
-0.07219
-0.06666
-0.06908
-0.06836
-0.06740
-0.06648
-0.06195
-0.04779
-0.05775
-0.06340
-0.06840
-0.05933
-0.02570
-0.00774
0.00497
0.01567
0.01386
0.01233
-0.00368
-0.02957
-0.01546
-0.00084
0.00133
0.01178
0.00432
-0.00151
-0.01961
-0.02593
-0.03009
-0.02922
-0.02712
-0.01580
0.00173
-0.00210
-0.01507
-0.03705
-0.04739
-0.04976
-0.03894
-0.02624
-0.01463
0.00120
0.00546
-0.01646
-0.02213
-0.02364
-0.02904
-0.02207
-0.01273
0.00177
-0.00196
-0.00207
-0.00953
-0.02028
-0.02207
-0.03318
-0.02471
-0.01346
-0.00196
-0.00723
-0.01842
-0.01913
-0.02321
-0.03096
-0.02451
-0.01688
-0.01882
-0.01912
-0.00998
-0.02269
-0.00519
0.00557
0.01958
0.03023
0.05309
0.07447
0.08038
0.10131
0.12042
0.15828
0.15653
0.15646
0.13730
0.13321
0.12290
0.08607
0.06142
0.03082
0.01431
-0.00143
-0.01848
-0.04136
-0.06367
-0.09692
-0.11722
-0.11899
-0.10224
-0.09828
-0.09728
-0.09920
-0.10692
-0.11537
-0.12984
-0.15487
-0.16814
-0.15466
-0.10698
0.02049
0.23891
0.56629
0.94229
1.30849
1.58001
1.58941
1.29710
0.80158
0.30319
-0.05525
-0.20762
-0.21147
-0.16951
-0.11511
-0.10856
-0.13092
-0.15058
-0.17731
-0.18931
-0.21149
-0.22754
-0.22506
-0.21398
-0.19878
-0.18132
-0.18132
-0.19093
-0.19975
-0.20611
-0.21439
-0.21541
-0.20425
-0.17632
-0.16781
-0.18313
-0.18766
-0.20199
-0.20136
-0.19279
-0.19437
-0.16855
-0.16008
-0.15473
-0.14563
-0.15530
-0.16096
-0.18195
-0.15945
-0.14522
-0.12896
-0.11655
-0.11315
-0.11653
-0.11431
-0.11877
-0.11765
-0.11365
-0.10697
-0.09808
-0.09347
-0.08280
-0.08956
-0.11207
-0.11416
-0.10758
-0.09240
-0.08139
-0.08203
-0.07185
-0.06406
-0.05409
-0.04125
-0.02381
-0.02463
-0.02784
-0.02243
-0.03875
-0.04321
-0.04258
-0.04692
-0.05091
-0.05133
-0.03872
-0.04483
-0.05527
-0.08252
-0.09054
-0.08979
-0.08447
-0.07659
-0.06458
-0.04243
-0.04565
-0.05556
-0.07881
-0.08234
-0.08443
-0.08063
-0.07091
-0.04793
-0.03845
-0.06529
-0.07084
-0.08497
-0.09037
-0.08847
-0.07145
-0.05335
-0.04739
-0.04403
-0.06109
-0.07513
-0.06569
-0.07423
-0.07819
-0.06273
-0.06080
-0.06447
-0.06611
-0.07311
-0.07989
-0.08362
-0.07849
-0.06899
-0.06059
-0.03008
-0.02247
-0.01194
0.00223
0.01062
0.03053
0.04707
0.07017
0.10515
0.11193
0.09940
0.08685
0.05970
0.05316
0.04954
0.04597
0.02056
-0.01670
-0.04537
-0.06865
-0.09241
-0.10780
-0.11535
-0.12620
-0.13056
-0.13319
-0.14749
-0.15197
-0.15419
-0.15963
-0.16413
-0.16378
-0.16720
-0.18344
-0.20088
-0.21778
-0.18365
-0.07842
0.10209
0.39001
0.73802
1.08488
1.40136
1.54658
1.42184
1.05754
0.58345
0.16782
-0.10177
-0.22821
-0.23420
-0.18559
-0.15183
-0.15813
-0.19346
-0.20600
-0.21039
-0.20894
-0.21758
-0.22614
-0.22526
-0.24283
-0.25816
-0.23747
-0.22072
-0.19783
-0.19598
-0.20906
-0.21260
-0.23632
-0.25080
-0.23390
-0.23467
-0.22834
-0.19866
-0.19007
-0.19574
-0.20186
-0.21344
-0.21866
-0.20534
-0.18097
-0.16250
-0.15134
-0.14739
-0.15113
-0.16103
-0.16450
-0.15083
-0.12558
-0.11864
-0.10952
-0.10248
-0.11521
-0.12847
-0.12983
-0.11242
-0.10966
-0.10800
-0.10284
-0.10256
-0.11208
-0.12035
-0.11566
-0.09525
-0.09256
-0.07333
-0.05345
-0.02736
-0.02033
-0.02016
-0.03760
-0.04152
-0.04233
-0.04660
-0.03031
-0.02037
-0.02634
-0.05386
-0.06990
-0.07194
-0.06981
-0.07639
-0.07565
-0.05458
-0.04154
-0.04751
-0.05095
-0.04928
-0.05159
-0.05572
-0.04860
-0.03639
-0.03486
-0.03624
-0.05162
-0.04403
-0.03896
-0.04602
-0.03920
-0.02422
-0.02132
-0.03119
-0.03372
-0.04059
-0.04076
-0.03818
-0.02830
-0.02181
-0.02487
-0.02144
-0.02618
-0.03148
-0.03587
-0.04057
-0.04874
-0.05073
-0.04532
-0.04108
-0.04587
-0.04027
-0.03597
-0.02018
-0.00041
0.01549
0.02944
0.04394
0.04240
0.06453
0.07515
0.11082
0.12854
0.13031
0.13963
0.12889
0.11413
0.10780
0.08088
0.04271
0.01170
-0.00782
-0.01561
-0.03370
-0.05744
-0.08163
-0.09629
-0.11234
-0.12805
-0.10918
-0.09557
-0.09577
-0.09595
-0.11312
-0.13432
-0.13642
-0.16799
-0.16702
-0.11729
-0.00148
0.17017
0.41245
0.74067
1.10436
1.43082
1.63219
1.58968
1.30460
0.85436
0.38853
0.03007
-0.16378
-0.22305
-0.18905
-0.12891
-0.11137
-0.11401
-0.15464
-0.17681
-0.19213
-0.20268
-0.21873
-0.22822
-0.21805
-0.21510
-0.19605
-0.20153
-0.19423
-0.19974
-0.20484
-0.21817
-0.20984
-0.20722
-0.20643
-0.19793
-0.19961
-0.19542
-0.20224
-0.20249
-0.20801
-0.19992
-0.18366
-0.19091
-0.18781
-0.18371
-0.18901
-0.19242
-0.20251
-0.16644
-0.15745
-0.14679
-0.13913
-0.13720
-0.16013
-0.15515
-0.14898
-0.14503
-0.12785
-0.11476
-0.10813
-0.11456
-0.12486
-0.12460
-0.12563
-0.11824
-0.11555
-0.10330
-0.08999
-0.10304
-0.12004
-0.12597
-0.12252
-0.10721
-0.08921
-0.05959
-0.04337
-0.04770
-0.04879
-0.06877
-0.06870
-0.08512
-0.09321
-0.09201
-0.06894
-0.05785
-0.07029
-0.08589
-0.10151
-0.11117
-0.11946
-0.11775
-0.11266
-0.10409
-0.10616
-0.10295
-0.11791
-0.12753
-0.11618
-0.11754
-0.12061
-0.11981
-0.09415
-0.09845
-0.09920
-0.10555
-0.12011
-0.11298
-0.10459
-0.10775
-0.09892
-0.09061
-0.10161
-0.11275
-0.11295
-0.12584
-0.11970
-0.11897
-0.10627
-0.10859
-0.10607
-0.11015
-0.11124
-0.10760
-0.10388
-0.09737
-0.11092
-0.10748
-0.11939
-0.13855
-0.14635
-0.13829
-0.09888
-0.07750
-0.06742
-0.06966
-0.05827
-0.06815
-0.05692
-0.04563
-0.01568
0.03082
0.05591
0.05891
0.04389
0.01513
0.00559
-0.01288
-0.02416
-0.04013
-0.06119
-0.08002
-0.10257
-0.12069
-0.15007
-0.18611
-0.21537
-0.22514
-0.22303
-0.21496
-0.20598
-0.21579
-0.21519
-0.22866
-0.25356
-0.25153
-0.25109
-0.23500
-0.24761
-0.26471
-0.27562
-0.23901
-0.13463
0.00821
0.24524
0.56272
0.95148
1.31117
1.54582
1.52276
1.21603
0.74827
0.25767
-0.07987
-0.23093
-0.26411
-0.23551
-0.21981
-0.22993
-0.25248
-0.28877
-0.31653
-0.32403
-0.31136
-0.31134
-0.32879
-0.34101
-0.34754
-0.34806
-0.33566
-0.32474
-0.30787
-0.30411
-0.31546
-0.33495
-0.33388
-0.33958
-0.33199
-0.31582
-0.30169
-0.30393
-0.30497
-0.31218
-0.32402
-0.33388
-0.31989
-0.30942
-0.28811
-0.27185
-0.26523
-0.26816
-0.28402
-0.30232
-0.29709
-0.27852
-0.26430
-0.25272
-0.24861
-0.24218
-0.24192
-0.24410
-0.24295
-0.24535
-0.22014
-0.20840
-0.20718
-0.21120
-0.21684
-0.21185
-0.21156
-0.22051
-0.21825
-0.21350
-0.19651
-0.19042
-0.19204
-0.19999
-0.17994
-0.17926
-0.16407
-0.16782
-0.15589
-0.15421
-0.15411
-0.16573
-0.16805
-0.18592
-0.16638
-0.14961
-0.15184
-0.15861
-0.16722
-0.17280
-0.18683
-0.19951
-0.19854
-0.19509
-0.17601
-0.16076
-0.16769
-0.18322
-0.19282
-0.18470
-0.18444
-0.19907
-0.18568
-0.18097
-0.18121
-0.18100
-0.17685
-0.18470
-0.19423
-0.19845
-0.18130
-0.17178
-0.17145
-0.16322
-0.17284
-0.17232
-0.18881
-0.17779
-0.18329
-0.18341
-0.17617
-0.17506
-0.17638
-0.18148
-0.17184
-0.17429
-0.18267
-0.19645
-0.19274
-0.20382
-0.18927
-0.18448
-0.18342
-0.16404
-0.14614
-0.12297
-0.10843
-0.10054
-0.08712
-0.08985
-0.08478
-0.06259
-0.01996
0.00503
0.00232
-0.02150
-0.03845
-0.03761
-0.05497
-0.07623
-0.09896
-0.11364
-0.14488
-0.16740
-0.18628
-0.21603
-0.23917
-0.26887
-0.27861
-0.27192
-0.25883
-0.24835
-0.25960
-0.26069
-0.28229
-0.29058
-0.29703
-0.30782
-0.32499
-0.30870
-0.26143
-0.15642
0.01855
0.27174
0.60201
0.97675
1.30625
1.46778
1.33089
0.93213
0.44532
0.02384
-0.24698
-0.34203
-0.33076
-0.27669
-0.25044
-0.26343
-0.28739
-0.32381
-0.35335
-0.36601
-0.35826
-0.34170
-0.36111
-0.35384
-0.34796
-0.35761
-0.36192
-0.37114
-0.36945
-0.36483
-0.35678
-0.34975
-0.34300
-0.33154
-0.33687
-0.34087
-0.35352
-0.33569
-0.34029
-0.34003
-0.32825
-0.32681
-0.31892
-0.33697
-0.32766
-0.31841
-0.31271
-0.29814
-0.29183
-0.29556
-0.28758
-0.28421
-0.28714
-0.28720
-0.26410
-0.24848
-0.23606
-0.23408
-0.24011
-0.24327
-0.23938
-0.23414
-0.22693
-0.23068
-0.22089
-0.23160
-0.22429
-0.23620
-0.24065
-0.22848
-0.20904
-0.18750
-0.16799
-0.14668
-0.13588
-0.15275
-0.16181
-0.17879
-0.17278
-0.17028
-0.16452
-0.15535
-0.16044
-0.16407
-0.18600
-0.20065
-0.20784
-0.20743
-0.20645
-0.19128
-0.18258
-0.17594
-0.18963
-0.20018
-0.22170
-0.21358
-0.20354
-0.19689
-0.18209
-0.18473
-0.17371
-0.18530
-0.20153
-0.20517
-0.19604
-0.19186
-0.18602
-0.18055
-0.16677
-0.16904
-0.18289
-0.20190
-0.20475
-0.18908
-0.19141
-0.18016
-0.18430
-0.19404
-0.19275
-0.20484
-0.19990
-0.19619
-0.17502
-0.17409
-0.19496
-0.18191
-0.17695
-0.16715
-0.16863
-0.16285
-0.12965
-0.10844
-0.11562
-0.11345
-0.10506
-0.07582
-0.04017
-0.02092
-0.00180
-0.00621
-0.00906
-0.01785
-0.04027
-0.06090
-0.10317
-0.13030
-0.15976
-0.15691
-0.17342
-0.19190
-0.22523
-0.22845
-0.24677
-0.26801
-0.25974
-0.25517
-0.24499
-0.24300
-0.24431
-0.25794
-0.26750
-0.28984
-0.30800
-0.30187
-0.22059
-0.08872
0.15126
0.45780
0.80323
1.16029
1.41462
1.42913
1.18122
0.72694
0.25658
-0.10302
-0.31070
-0.36545
-0.32039
-0.26068
-0.23748
-0.24577
-0.28774
-0.31829
-0.32076
-0.31934
-0.31593
-0.31368
-0.32751
-0.33063
-0.32353
-0.32450
-0.31126
-0.31569
-0.31130
-0.32011
-0.31462
-0.31157
-0.30466
-0.29918
-0.30022
-0.29755
-0.29568
-0.29264
-0.29079
-0.28840
-0.28707
-0.26891
-0.26333
-0.25576
-0.24818
-0.25963
-0.25661
-0.24675
-0.23694
-0.22462
-0.22336
-0.21321
-0.21600
-0.21159
-0.20317
-0.20053
-0.20129
-0.18966
-0.18573
-0.18681
-0.19045
-0.19121
-0.19575
-0.18529
-0.18317
-0.16487
-0.15225
-0.14228
-0.13659
-0.12159
-0.11445
-0.10060
-0.08740
-0.07684
-0.07882
-0.08940
-0.10355
-0.11283
-0.12542
-0.11732
-0.11934
-0.10691
-0.09255
-0.11057
-0.11639
-0.12745
-0.13923
-0.14234
-0.12918
-0.10832
-0.09750
-0.10363
-0.10127
-0.10631
-0.11720
-0.12758
-0.12710
-0.11779
-0.08906
-0.08664
-0.07634
-0.09727
-0.11287
-0.11292
-0.10791
-0.09511
-0.08032
-0.06913
-0.06832
-0.07262
-0.09418
-0.10145
-0.11570
-0.12311
-0.11463
-0.08617
-0.09190
-0.10099
-0.10332
-0.11074
-0.09453
-0.08262
-0.05412
-0.03646
-0.02117
-0.01543
-0.01245
-0.01645
-0.00553
0.03248
0.04718
0.04754
0.04721
0.05278
0.06366
0.05281
0.03282
0.00271
-0.03026
-0.05753
-0.08820
-0.11102
-0.13943
-0.16199
-0.17290
-0.18988
-0.18012
-0.16980
-0.18075
-0.18295
-0.17424
-0.18050
-0.19653
-0.20776
-0.20561
-0.19482
-0.19517
-0.19740
-0.15949
-0.04605
0.13151
0.38430
0.70279
1.07979
1.41367
1.58315
1.48995
1.15867
0.70865
0.27072
-0.06041
-0.22477
-0.26302
-0.23137
-0.16800
-0.17010
-0.20507
-0.25696
-0.31102
-0.31865
-0.31361
-0.29456
-0.26981
-0.27152
-0.28304
-0.30207
-0.30705
-0.31078
-0.31743
-0.30617
-0.30185
-0.30279
-0.30172
-0.28412
-0.29534
-0.30787
-0.30962
-0.31468
-0.30425
-0.29879
-0.29307
-0.29205
-0.29284
-0.29482
-0.29997
-0.28769
-0.28608
-0.27568
-0.25740
-0.25011
-0.25622
-0.25874
-0.26666
-0.25143
-0.23710
-0.22792
-0.22229
-0.22815
-0.24268
-0.23461
-0.21888
-0.22016
-0.21267
-0.22255
-0.21292
-0.20964
-0.21547
-0.22638
-0.20801
-0.19349
-0.17770
-0.16646
-0.16153
-0.16183
-0.17350
-0.17538
-0.18980
-0.17675
-0.16255
-0.15998
-0.17678
-0.19145
-0.19177
-0.20326
-0.21225
-0.21104
-0.20677
-0.19032
-0.18165
-0.18055
-0.19285
-0.20786
-0.22543
-0.22333
-0.23020
-0.21919
-0.19739
-0.18557
-0.18156
-0.19928
-0.21042
-0.22972
-0.21462
-0.21238
-0.19863
-0.17904
-0.17403
-0.18724
-0.19820
-0.21742
-0.22244
-0.21639
-0.21750
-0.20748
-0.19511
-0.19131
-0.21183
-0.21970
-0.22466
-0.23360
-0.23251
-0.20884
-0.19276
-0.17895
-0.18106
-0.17885
-0.17624
-0.16844
-0.16336
-0.15546
-0.13324
-0.10648
-0.06797
-0.04800
-0.05725
-0.06773
-0.08339
-0.09557
-0.08890
-0.07583
-0.10166
-0.13048
-0.16991
-0.21036
-0.24014
-0.25384
-0.27140
-0.27495
-0.27890
-0.29089
-0.30326
-0.30058
-0.31327
-0.32204
-0.31722
-0.31360
-0.31313
-0.31571
-0.34003
-0.36222
-0.36111
-0.30371
-0.17745
0.00414
0.26903
0.59564
0.94788
1.26413
1.43851
1.34597
1.02957
0.59991
0.18344
-0.14310
-0.32143
-0.38157
-0.36640
-0.33222
-0.32901
-0.34454
-0.36983
-0.38564
-0.39572
-0.41380
-0.42756
-0.43144
-0.42350
-0.41479
-0.41322
-0.40096
-0.40755
-0.41333
-0.41966
-0.43843
-0.43456
-0.42424
-0.41709
-0.40838
-0.39115
-0.38740
-0.40176
-0.41435
-0.42633
-0.41372
-0.40482
-0.39787
-0.38826
-0.38457
-0.38711
-0.38484
-0.38529
-0.38443
-0.38620
-0.37940
-0.37366
-0.36011
-0.36054
-0.35645
-0.35395
-0.35049
-0.33786
-0.33504
-0.33260
-0.32258
-0.32213
-0.32650
-0.32697
-0.33378
-0.32394
-0.31123
-0.30545
-0.30527
-0.30097
-0.30725
-0.30417
-0.29637
-0.28172
-0.26064
-0.26091
-0.25007
-0.25620
-0.26456
-0.28005
-0.28950
-0.28004
-0.27823
-0.27598
-0.28331
-0.28731
-0.29271
-0.31166
-0.31198
-0.29758
-0.29476
-0.29451
-0.29722
-0.30310
-0.29655
-0.30444
-0.31498
-0.32774
-0.31485
-0.29542
-0.29311
-0.28770
-0.28787
-0.29339
-0.31594
-0.31492
-0.32461
-0.30614
-0.29521
-0.29092
-0.28537
-0.29233
-0.31286
-0.31579
-0.30821
-0.30572
-0.29401
-0.27937
-0.27852
-0.28903
-0.30973
-0.31332
-0.32146
-0.31335
-0.29016
-0.26035
-0.23976
-0.23071
-0.22681
-0.23440
-0.23842
-0.21727
-0.17051
-0.13578
-0.11246
-0.12501
-0.14407
-0.16372
-0.18497
-0.21674
-0.23190
-0.24311
-0.25908
-0.27672
-0.30663
-0.33206
-0.36758
-0.39480
-0.40195
-0.39530
-0.38364
-0.37023
-0.37360
-0.37631
-0.39614
-0.39967
-0.41381
-0.42009
-0.42847
-0.43432
-0.38383
-0.27585
-0.08759
0.17385
0.51569
0.89996
1.21995
1.34712
1.19026
0.80093
0.32467
-0.08567
-0.35454
-0.44574
-0.43006
-0.38060
-0.34895
-0.37527
-0.42538
-0.46008
-0.48090
-0.47842
-0.46030
-0.44153
-0.44666
-0.46364
-0.46256
-0.46709
-0.47673
-0.48423
-0.48320
-0.48133
-0.45921
-0.44815
-0.45309
-0.44234
-0.45417
-0.47890
-0.47073
-0.46205
-0.45383
-0.44978
-0.43994
-0.43517
-0.43110
-0.42793
-0.43891
-0.43484
-0.43262
-0.41855
-0.41738
-0.41047
-0.40353
-0.40118
-0.39587
-0.38649
-0.37720
-0.36609
-0.36257
-0.36915
-0.37649
-0.36962
-0.35687
-0.34524
-0.33924
-0.33585
-0.33510
-0.34849
-0.35854
-0.36310
-0.36086
-0.36180
-0.34579
-0.32545
-0.30212
-0.29288
-0.28254
-0.28680
-0.29635
-0.29120
-0.28144
-0.29363
-0.26992
-0.25806
-0.26620
-0.26978
-0.29755
-0.31372
-0.30666
-0.29919
-0.29432
-0.28872
-0.29405
-0.29983
-0.30527
-0.32415
-0.33082
-0.32267
-0.32787
-0.31441
-0.29875
-0.28711
-0.29256
-0.31129
-0.30639
-0.29897
-0.29453
-0.29138
-0.29735
-0.29063
-0.28497
-0.29710
-0.30165
-0.28742
-0.28816
-0.28688
-0.28828
-0.28486
-0.28900
-0.30161
-0.29516
-0.30278
-0.29434
-0.28746
-0.26841
-0.28260
-0.27261
-0.29211
-0.28803
-0.26453
-0.25295
-0.23617
-0.21697
-0.20781
-0.19182
-0.19416
-0.18283
-0.15576
-0.11613
-0.10187
-0.10554
-0.11429
-0.11857
-0.13449
-0.16639
-0.19421
-0.22186
-0.24453
-0.24695
-0.26535
-0.28800
-0.31767
-0.33268
-0.35034
-0.35913
-0.35161
-0.35234
-0.32928
-0.32625
-0.33565
-0.35795
-0.37679
-0.39086
-0.39698
-0.37149
-0.27721
-0.12504
0.12346
0.45830
0.82223
1.18109
1.40001
1.33559
1.04167
0.58605
0.12384
-0.19969
-0.38357
-0.42544
-0.39828
-0.35882
-0.32044
-0.34105
-0.35943
-0.39046
-0.40995
-0.41767
-0.42862
-0.41041
-0.41374
-0.40798
-0.39800
-0.39399
-0.40102
-0.39615
-0.41471
-0.40696
-0.41214
-0.41980
-0.39690
-0.38203
-0.38326
-0.39134
-0.38414
-0.38798
-0.39737
-0.39253
-0.38092
-0.36945
-0.36850
-0.38446
-0.38604
-0.37003
-0.36196
-0.35061
-0.32486
-0.31522
-0.31631
-0.32592
-0.33889
-0.33057
-0.31988
-0.30868
-0.29869
-0.28457
-0.27924
-0.29525
-0.30033
-0.30038
-0.29630
-0.27769
-0.28682
-0.26702
-0.27309
-0.27063
-0.27352
-0.27836
-0.26565
-0.24289
-0.21531
-0.19689
-0.17432
-0.16890
-0.19034
-0.20760
-0.21331
-0.19888
-0.18772
-0.19290
-0.18784
-0.18711
-0.19799
-0.21457
-0.23096
-0.23693
-0.23503
-0.22703
-0.22235
-0.20917
-0.20683
-0.20492
-0.21647
-0.22102
-0.22984
-0.21225
-0.20367
-0.20124
-0.20132
-0.21196
-0.20992
-0.22010
-0.20300
-0.20549
-0.20354
-0.21438
-0.21213
-0.20659
-0.21191
-0.21093
-0.20697
-0.19824
-0.19559
-0.19655
-0.19456
-0.20135
-0.21365
-0.21846
-0.22338
-0.22386
-0.20155
-0.19150
-0.18970
-0.20121
-0.21331
-0.21081
-0.22283
-0.20802
-0.18539
-0.16695
-0.14446
-0.13376
-0.13327
-0.11804
-0.09124
-0.08096
-0.07519
-0.07446
-0.06824
-0.06452
-0.06679
-0.08635
-0.10102
-0.14637
-0.17862
-0.20812
-0.22961
-0.24050
-0.25611
-0.28107
-0.29002
-0.30898
-0.32256
-0.31300
-0.30979
-0.30295
-0.31352
-0.31234
-0.32290
-0.34496
-0.36311
-0.37651
-0.33621
-0.22446
-0.05430
0.19961
0.52129
0.89034
1.22189
1.43231
1.42019
1.14395
0.68223
0.19764
-0.15983
-0.34321
-0.40182
-0.36730
-0.32841
-0.31027
-0.33460
-0.37463
-0.42827
-0.43860
-0.43897
-0.43812
-0.43266
-0.44209
-0.42767
-0.41810
-0.42871
-0.43725
-0.44345
-0.45828
-0.46550
-0.46061
-0.44468
-0.42354
-0.42181
-0.43389
-0.45817
-0.45660
-0.46485
-0.45998
-0.43902
-0.42513
-0.41709
-0.41255
-0.41749
-0.41464
-0.43248
-0.43171
-0.42217
-0.40983
-0.38799
-0.39614
-0.38837
-0.38539
-0.39188
-0.38643
-0.38316
-0.37178
-0.36463
-0.35337
-0.36297
-0.35293
-0.35346
-0.37394
-0.36656
-0.36792
-0.35685
-0.35521
-0.36052
-0.35995
-0.37031
-0.35134
-0.33686
-0.31343
-0.28630
-0.29233
-0.29965
-0.30639
-0.31743
-0.32145
-0.32857
-0.32094
-0.31999
-0.31628
-0.32980
-0.34200
-0.35225
-0.36766
-0.36682
-0.35203
-0.33980
-0.33252
-0.33877
-0.34400
-0.35456
-0.36344
-0.38375
-0.36950
-0.36294
-0.34784
-0.33635
-0.34063
-0.33514
-0.34906
-0.36893
-0.36110
-0.36375
-0.34796
-0.34658
-0.34365
-0.33385
-0.35267
-0.36050
-0.36905
-0.36093
-0.35305
-0.34806
-0.33684
-0.33967
-0.34391
-0.35776
-0.37018
-0.37612
-0.35949
-0.34995
-0.31945
-0.30290
-0.29173
-0.29086
-0.29224
-0.27866
-0.25277
-0.22588
-0.19811
-0.18581
-0.19258
-0.20325
-0.21738
-0.21559
-0.21674
-0.23224
-0.26139
-0.30486
-0.33382
-0.35588
-0.38026
-0.41076
-0.41407
-0.42408
-0.43002
-0.43679
-0.44673
-0.45294
-0.46774
-0.47876
-0.47024
-0.45936
-0.47555
-0.47261
-0.50346
-0.48832
-0.42640
-0.33006
-0.14482
0.16571
0.54780
0.92417
1.23094
1.33879
1.16662
0.75858
0.25254
-0.16139
-0.40999
-0.49111
-0.47832
-0.44918
-0.44188
-0.48337
-0.52714
-0.55739
-0.56889
-0.56132
-0.54187
-0.53612
-0.54664
-0.54048
-0.56865
-0.58198
-0.57386
-0.57120
-0.54831
-0.54232
-0.54000
-0.54422
-0.54912
-0.56183
-0.57017
-0.55707
-0.53722
-0.53468
-0.54037
-0.52764
-0.52691
-0.53568
-0.54299
-0.53816
-0.52371
-0.51305
-0.50804
-0.50183
-0.49393
-0.49224
-0.49619
-0.49217
-0.49193
-0.48361
-0.46565
-0.46219
-0.46143
-0.46147
-0.45999
-0.45198
-0.44892
-0.44099
-0.43881
-0.43130
-0.44067
-0.45117
-0.45825
-0.47034
-0.44482
-0.41867
-0.40920
-0.39726
-0.39492
-0.40016
-0.40492
-0.41088
-0.40359
-0.39241
-0.39680
-0.38935
-0.39392
-0.40771
-0.42054
-0.44382
-0.41111
-0.41343
-0.42019
-0.40805
-0.41851
-0.43003
-0.44394
-0.44231
-0.43160
-0.42701
-0.41138
-0.39840
-0.39865
-0.41470
-0.43765
-0.43953
-0.44592
-0.42468
-0.42007
-0.41504
-0.40963
-0.41512
-0.41914
-0.42340
-0.42486
-0.42885
-0.42431
-0.40186
-0.39122
-0.39129
-0.40041
-0.41989
-0.43217
-0.43843
-0.43848
-0.41631
-0.39518
-0.37461
-0.36927
-0.36967
-0.35705
-0.35476
-0.33864
-0.32439
-0.29387
-0.25394
-0.23347
-0.22419
-0.24384
-0.27655
-0.26921
-0.27200
-0.27159
-0.28886
-0.32411
-0.36582
-0.39575
-0.43024
-0.45591
-0.47010
-0.46975
-0.47060
-0.46771
-0.46526
-0.48236
-0.48829
-0.50768
-0.50455
-0.49556
-0.49502
-0.50455
-0.50996
-0.49047
-0.41792
-0.27195
-0.03384
0.31101
0.73260
1.11602
1.31932
1.24535
0.89869
0.38754
-0.09475
-0.41582
-0.55361
-0.56219
-0.51354
-0.47667
-0.48176
-0.51893
-0.55778
-0.56909
-0.55777
-0.54978
-0.55033
-0.55561
-0.56240
-0.57318
-0.59298
-0.56851
-0.56354
-0.54877
-0.55620
-0.55825
-0.56278
-0.57682
-0.56820
-0.54876
-0.54269
-0.53263
-0.51635
-0.52380
-0.52487
-0.52454
-0.53169
-0.54547
-0.53061
-0.50504
-0.49090
-0.49117
-0.48523
-0.48286
-0.48625
-0.49706
-0.48493
-0.46671
-0.45006
-0.43936
-0.43848
-0.42768
-0.43514
-0.44481
-0.45754
-0.44863
-0.41962
-0.41095
-0.40730
-0.40572
-0.42124
-0.43269
-0.45892
-0.43513
-0.40970
-0.37597
-0.35835
-0.35559
-0.34618
-0.35521
-0.36789
-0.36250
-0.34582
-0.33654
-0.33286
-0.32491
-0.33439
-0.34282
-0.35739
-0.37764
-0.36922
-0.36870
-0.36612
-0.37061
-0.37792
-0.37827
-0.37312
-0.38010
-0.37157
-0.35473
-0.35460
-0.36384
-0.36139
-0.35659
-0.35757
-0.36046
-0.35844
-0.35528
-0.34165
-0.34162
-0.34940
-0.35174
-0.35848
-0.35615
-0.35110
-0.34588
-0.33080
-0.32898
-0.33532
-0.34211
-0.33897
-0.33960
-0.34935
-0.34308
-0.33127
-0.31800
-0.32525
-0.34496
-0.33542
-0.33736
-0.31490
-0.30886
-0.28786
-0.25856
-0.24514
-0.24141
-0.21485
-0.19411
-0.17864
-0.17550
-0.16658
-0.16942
-0.16813
-0.15553
-0.15983
-0.18540
-0.22114
-0.25821
-0.29009
-0.31130
-0.32189
-0.34278
-0.35010
-0.35833
-0.38601
-0.38679
-0.40340
-0.40780
-0.38474
-0.37977
-0.38754
-0.37929
-0.37687
-0.38877
-0.42348
-0.42570
-0.37919
-0.25059
-0.04313
0.25163
0.60142
0.97134
1.28045
1.41602
1.30780
0.97443
0.49208
0.03398
-0.26930
-0.43777
-0.46851
-0.41755
-0.36718
-0.33868
-0.36110
-0.41193
-0.45368
-0.48637
-0.47778
-0.48782
-0.46942
-0.44857
-0.43945
-0.44455
-0.45121
-0.46302
-0.47166
-0.47324
-0.46483
-0.45252
-0.44118
-0.43110
-0.44541
-0.45414
-0.45810
-0.47218
-0.44685
-0.45796
-0.44129
-0.41680
-0.40804
-0.42184
-0.42526
-0.42641
-0.42588
-0.41887
-0.41317
-0.39233
-0.38849
-0.37604
-0.38381
-0.39280
-0.40489
-0.39839
-0.38036
-0.37130
-0.35508
-0.33858
-0.33712
-0.34259
-0.34751
-0.35261
-0.34987
-0.35487
-0.35958
-0.35087
-0.34552
-0.34051
-0.33653
-0.32503
-0.31143
-0.31076
-0.29434
-0.27396
-0.27143
-0.27655
-0.28334
-0.28937
-0.27409
-0.26738
-0.24818
-0.26034
-0.26294
-0.27838
-0.28847
-0.29342
-0.30165
-0.30053
-0.28035
-0.28061
-0.27577
-0.28311
-0.29822
-0.31179
-0.31276
-0.30308
-0.28988
-0.27125
-0.27000
-0.26954
-0.27286
-0.28519
-0.29945
-0.30993
-0.30207
-0.27944
-0.26516
-0.26175
-0.26269
-0.26350
-0.27152
-0.29182
-0.28805
-0.27133
-0.26649
-0.26143
-0.25742
-0.27273
-0.26179
-0.26577
-0.27330
-0.27820
-0.27320
-0.27062
-0.27219
-0.28132
-0.28799
-0.27336
-0.26537
-0.24231
-0.22944
-0.22973
-0.22220
-0.20520
-0.21399
-0.19878
-0.16683
-0.13006
-0.10538
-0.10909
-0.10923
-0.12499
-0.12985
-0.14837
-0.15187
-0.16240
-0.19513
-0.20696
-0.23727
-0.26098
-0.29515
-0.33680
-0.36115
-0.36728
-0.35642
-0.34102
-0.34018
-0.36308
-0.36945
-0.38184
-0.40480
-0.40616
-0.41074
-0.42001
-0.41771
-0.40957
-0.35455
-0.24020
-0.07119
0.19844
0.55186
0.94632
1.28854
1.48496
1.41526
1.10262
0.63233
0.15361
-0.17957
-0.35829
-0.40096
-0.38880
-0.37726
-0.36799
-0.39532
-0.42724
-0.46276
-0.47461
-0.46364
-0.45995
-0.46094
-0.47122
-0.48028
-0.48259
-0.47889
-0.46449
-0.47250
-0.44775
-0.45012
-0.48012
-0.47253
-0.46957
-0.47621
-0.46613
-0.46187
-0.45188
-0.44830
-0.46467
-0.47281
-0.47918
-0.47408
-0.46002
-0.44110
-0.42705
-0.41284
-0.41466
-0.43175
-0.44233
-0.43753
-0.43879
-0.41786
-0.39480
-0.37940
-0.37684
-0.38399
-0.38000
-0.38029
-0.39473
-0.39021
-0.36398
-0.35421
-0.35574
-0.36020
-0.36562
-0.37670
-0.38227
-0.37438
-0.35053
-0.33275
-0.32718
-0.30550
-0.29424
-0.30413
-0.31042
-0.31129
-0.31135
-0.31433
-0.31012
-0.30662
-0.31416
-0.32003
-0.31938
-0.33839
-0.32427
-0.31338
-0.32415
-0.31437
-0.32476
-0.33363
-0.33908
-0.35811
-0.34547
-0.33449
-0.31866
-0.31118
-0.31425
-0.32277
-0.34235
-0.35360
-0.33700
-0.31745
-0.30923
-0.30386
-0.30729
-0.31122
-0.31353
-0.33271
-0.34669
-0.34985
-0.32922
-0.30601
-0.29641
-0.30472
-0.31239
-0.32164
-0.33164
-0.33545
-0.32404
-0.31352
-0.30269
-0.29852
-0.30472
-0.30468
-0.30103
-0.29171
-0.28398
-0.26705
-0.23752
-0.21725
-0.20831
-0.19024
-0.15823
-0.15170
-0.16428
-0.16827
-0.16310
-0.15803
-0.17237
-0.18060
-0.20758
-0.24615
-0.28200
-0.30628
-0.30751
-0.34336
-0.37684
-0.38691
-0.39210
-0.39242
-0.39855
-0.40295
-0.40594
-0.40885
-0.41233
-0.41764
-0.42344
-0.44004
-0.45564
-0.44521
-0.40456
-0.28985
-0.13605
0.09409
0.40065
0.79131
1.17730
1.39206
1.35583
1.05196
0.61066
0.14265
-0.22430
-0.42139
-0.47182
-0.44724
-0.40435
-0.38804
-0.40916
-0.43699
-0.47816
-0.50536
-0.51162
-0.52086
-0.51973
-0.51516
-0.50732
-0.49957
-0.49055
-0.50072
-0.50432
-0.51934
-0.51005
-0.50767
-0.51638
-0.51424
-0.48131
-0.47652
-0.49057
-0.50111
-0.50264
-0.49467
-0.48225
-0.47214
-0.46362
-0.44892
-0.44767
-0.46112
-0.45938
-0.45710
-0.45141
-0.43284
-0.44020
-0.42274
-0.42267
-0.42198
-0.42363
-0.41862
-0.40456
-0.39880
-0.38167
-0.37925
-0.38246
-0.38477
-0.39769
-0.39105
-0.38765
-0.38040
-0.37330
-0.37609
-0.37735
-0.38251
-0.37115
-0.36233
-0.34764
-0.32926
-0.31119
-0.30236
-0.30349
-0.30428
-0.32728
-0.30991
-0.30533
-0.31271
-0.30605
-0.30805
-0.31172
-0.33807
-0.34452
-0.34876
-0.34789
-0.33872
-0.33087
-0.32762
-0.32344
-0.33646
-0.34974
-0.34770
-0.34703
-0.34640
-0.33623
-0.31883
-0.32066
-0.33484
-0.33676
-0.33145
-0.34596
-0.35056
-0.33459
-0.32291
-0.32332
-0.32026
-0.32409
-0.32486
-0.33378
-0.34750
-0.34474
-0.31721
-0.31682
-0.31621
-0.33342
-0.33669
-0.33266
-0.33727
-0.30834
-0.28625
-0.24917
-0.23342
-0.23328
-0.22770
-0.22625
-0.19643
-0.16843
-0.16739
-0.15871
-0.15860
-0.17120
-0.18269
-0.22135
-0.24142
-0.28039
-0.30643
-0.31251
-0.31958
-0.33256
-0.35444
-0.37780
-0.39366
-0.40810
-0.40933
-0.41527
-0.40262
-0.38554
-0.37953
-0.38843
-0.40949
-0.43727
-0.45743
-0.42506
-0.34209
-0.16947
0.08881
0.41857
0.77723
1.11079
1.30960
1.26675
0.96279
0.50187
0.07255
-0.25112
-0.42228
-0.45731
-0.41294
-0.37535
-0.38012
-0.41886
-0.44886
-0.45288
-0.47633
-0.48104
-0.47472
-0.46481
-0.46884
-0.47043
-0.44882
-0.44732
-0.45535
-0.45617
-0.46417
-0.47161
-0.45981
-0.44782
-0.44616
-0.43510
-0.43451
-0.43803
-0.44453
-0.42841
-0.42620
-0.43229
-0.42094
-0.42321
-0.42351
-0.43013
-0.43778
-0.42425
-0.41465
-0.41490
-0.40389
-0.38816
-0.38055
-0.38423
-0.38065
-0.40211
-0.38607
-0.37245
-0.36301
-0.34905
-0.34693
-0.34677
-0.36832
-0.38408
-0.37567
-0.36028
-0.34904
-0.33177
-0.33033
-0.31939
-0.33708
-0.34992
-0.34504
-0.33196
-0.31455
-0.29939
-0.28654
-0.26114
-0.25778
-0.26343
-0.27746
-0.28951
-0.29403
-0.30545
-0.29948
-0.28494
-0.28237
-0.28413
-0.29978
-0.30764
-0.31279
-0.30641
-0.30564
-0.29510
-0.29291
-0.29020
-0.29401
-0.29987
-0.30474
-0.30195
-0.30044
-0.27795
-0.28001
-0.30343
-0.30590
-0.29782
-0.30376
-0.29258
-0.29291
-0.29145
-0.28901
-0.29443
-0.29452
-0.29866
-0.29425
-0.28926
-0.28641
-0.29420
-0.29982
-0.29950
-0.29602
-0.30143
-0.29696
-0.28664
-0.27351
-0.26817
-0.25628
-0.24206
-0.22661
-0.21342
-0.20469
-0.18465
-0.15672
-0.13695
-0.11565
-0.10811
-0.12278
-0.13485
-0.14388
-0.14966
-0.17092
-0.20006
-0.23336
-0.25435
-0.28330
-0.31119
-0.33639
-0.35843
-0.36445
-0.35246
-0.34412
-0.34022
-0.34918
-0.36227
-0.38454
-0.38114
-0.39217
-0.39737
-0.40089
-0.37915
-0.31826
-0.20745
-0.00971
0.27827
0.63857
1.03272
1.32347
1.39308
1.18618
0.75639
0.25875
-0.16232
-0.39033
-0.46325
-0.43310
-0.35776
-0.31223
-0.34796
-0.39644
-0.42946
-0.44870
-0.46177
-0.45563
-0.43822
-0.43684
-0.41632
-0.42239
-0.42808
-0.44058
-0.44315
-0.46431
-0.45477
-0.44912
-0.44076
-0.42509
-0.42923
-0.42571
-0.43471
-0.43736
-0.42902
-0.43834
-0.42335
-0.40808
-0.40910
-0.41927
-0.43049
-0.40939
-0.40066
-0.40379
-0.39983
-0.37891
-0.38442
-0.37748
-0.38355
-0.37884
-0.36503
-0.35396
-0.35103
-0.35191
-0.34999
-0.34660
-0.36531
-0.35563
-0.35695
-0.33086
-0.32601
-0.32570
-0.31928
-0.33267
-0.33604
-0.35361
-0.34410
-0.32205
-0.29834
-0.27765
-0.25180
-0.26295
-0.26092
-0.26142
-0.27879
-0.27936
-0.28704
-0.27315
-0.26384
-0.26537
-0.26260
-0.27873
-0.28884
-0.29927
-0.28929
-0.27501
-0.26743
-0.26440
-0.27447
-0.30359
-0.31971
-0.32019
-0.30603
-0.29052
-0.27700
-0.28293
-0.28323
-0.28072
-0.28560
-0.29352
-0.31438
-0.29856
-0.28166
-0.28534
-0.27933
-0.28000
-0.27020
-0.28284
-0.28932
-0.29339
-0.29327
-0.27799
-0.29828
-0.29323
-0.29168
-0.28946
-0.29032
-0.28589
-0.29144
-0.27957
-0.27099
-0.28014
-0.27847
-0.27104
-0.25446
-0.24467
-0.22252
-0.19908
-0.18621
-0.18373
-0.17088
-0.14763
-0.13427
-0.14366
-0.14416
-0.14444
-0.13827
-0.13580
-0.17177
-0.21318
-0.25651
-0.27668
-0.30139
-0.30866
-0.30721
-0.31639
-0.33872
-0.36397
-0.37143
-0.37409
-0.39260
-0.39429
-0.38249
-0.35560
-0.36059
-0.38208
-0.42653
-0.42837
-0.36645
-0.20745
0.06785
0.44847
0.89070
1.25692
1.38875
1.18196
0.72186
0.18165
-0.23204
-0.42753
-0.45775
-0.40978
-0.36803
-0.37493
-0.42010
-0.45830
-0.46481
-0.47446
-0.46172
-0.43456
-0.44808
-0.46995
-0.47351
-0.48303
-0.47129
-0.46139
-0.44973
-0.43721
-0.43893
-0.44999
-0.45849
-0.45620
-0.46144
-0.46775
-0.43483
-0.42721
-0.42321
-0.41968
-0.43099
-0.44662
-0.44863
-0.43533
-0.41119
-0.39294
-0.40033
-0.39631
-0.39378
-0.38588
-0.38989
-0.37593
-0.36502
-0.36247
-0.36674
-0.36554
-0.36798
-0.36474
-0.35620
-0.35351
-0.33935
-0.32568
-0.32483
-0.33782
-0.35402
-0.35205
-0.35834
-0.34289
-0.31784
-0.30903
-0.28952
-0.28924
-0.28016
-0.28565
-0.28409
-0.28569
-0.27244
-0.26400
-0.25458
-0.24840
-0.26734
-0.28054
-0.29725
-0.30311
-0.30881
-0.29416
-0.28381
-0.27441
-0.27548
-0.28193
-0.30436
-0.31269
-0.31690
-0.32656
-0.30723
-0.28007
-0.26791
-0.28556
-0.28991
-0.30168
-0.30953
-0.30611
-0.30137
-0.29573
-0.28005
-0.26219
-0.26624
-0.28948
-0.29174
-0.28657
-0.28763
-0.28456
-0.28476
-0.28870
-0.27873
-0.28578
-0.29397
-0.29073
-0.29366
-0.28866
-0.29281
-0.27271
-0.25716
-0.25330
-0.24657
-0.23273
-0.20125
-0.19077
-0.18512
-0.17269
-0.16222
-0.14199
-0.13537
-0.12125
-0.10849
-0.11016
-0.11502
-0.12050
-0.13924
-0.15679
-0.18936
-0.21309
-0.23473
-0.24687
-0.26127
-0.27649
-0.29918
-0.33480
-0.33755
-0.33472
-0.36621
-0.35722
-0.33340
-0.31768
-0.30711
-0.31332
-0.32867
-0.35104
-0.38355
-0.39550
-0.36816
-0.26267
-0.08281
0.17696
0.51849
0.89093
1.20921
1.37167
1.28155
0.95292
0.49968
0.04890
-0.24635
-0.39699
-0.42888
-0.37183
-0.31775
-0.30607
-0.31344
-0.34686
-0.37522
-0.38460
-0.38325
-0.38502
-0.40261
-0.40889
-0.40070
-0.38718
-0.37799
-0.37885
-0.38370
-0.38029
-0.38219
-0.37424
-0.35908
-0.35111
-0.35466
-0.35609
-0.35733
-0.36114
-0.36533
-0.35834
-0.35001
-0.34354
-0.34193
-0.35053
-0.33374
-0.33783
-0.33447
-0.31775
-0.30755
-0.29896
-0.29743
-0.29384
-0.29118
-0.28066
-0.28982
-0.27520
-0.26522
-0.26201
-0.26448
-0.26103
-0.25742
-0.25972
-0.25586
-0.26962
-0.26744
-0.25238
-0.24351
-0.22819
-0.23536
-0.22814
-0.21246
-0.21066
-0.19317
-0.16350
-0.13920
-0.13125
-0.13648
-0.13203
-0.13858
-0.15676
-0.17112
-0.16931
-0.16020
-0.15641
-0.15988
-0.16567
-0.16643
-0.18619
-0.18171
-0.18872
-0.16735
-0.13284
-0.13028
-0.12909
-0.14214
-0.14917
-0.16529
-0.17522
-0.16441
-0.15714
-0.14592
-0.14951
-0.13433
-0.12930
-0.14539
-0.15809
-0.15701
-0.14953
-0.13093
-0.14149
-0.12644
-0.11911
-0.12394
-0.13926
-0.15006
-0.13041
-0.11948
-0.12602
-0.14556
-0.14461
-0.14872
-0.15372
-0.13994
-0.12331
-0.09855
-0.07450
-0.07013
-0.07344
-0.06949
-0.05805
-0.03249
-0.00224
0.03065
0.06203
0.05726
0.03815
0.02088
0.01540
0.02118
0.00667
-0.01338
-0.03994
-0.07179
-0.11142
-0.14985
-0.16454
-0.18006
-0.17764
-0.16947
-0.17372
-0.17021
-0.16426
-0.18754
-0.19804
-0.19088
-0.19117
-0.20972
-0.22207
-0.20885
-0.15577
-0.05098
0.12433
0.38270
0.72213
1.08666
1.43611
1.63409
1.57747
1.26990
0.80866
0.33763
-0.01861
-0.21005
-0.27037
-0.22405
-0.15499
-0.12669
-0.16345
-0.20508
-0.22759
-0.25700
-0.25220
-0.25381
-0.23556
-0.21682
-0.21811
-0.22939
-0.24801
-0.24980
-0.23934
-0.24772
-0.22422
-0.21011
-0.21877
-0.22187
-0.23497
-0.27324
-0.24812
-0.22442
-0.21398
-0.20192
-0.20738
-0.22409
-0.23208
-0.23859
-0.21124
-0.20338
-0.19774
-0.18083
-0.18294
-0.16751
-0.18459
-0.19846
-0.19447
-0.19050
-0.17316
-0.14628
-0.14699
-0.15657
-0.15407
-0.16089
-0.15880
-0.15745
-0.14622
-0.13579
-0.13804
-0.13776
-0.13516
-0.14091
-0.15439
-0.16512
-0.14467
-0.13320
-0.12138
-0.11151
-0.10840
-0.09241
-0.09156
-0.09152
-0.08991
-0.06499
-0.07276
-0.08309
-0.09138
-0.08597
-0.09600
-0.10313
-0.11089
-0.10475
-0.09371
-0.07701
-0.10117
-0.11314
-0.10278
-0.11293
-0.12375
-0.11955
-0.10636
-0.09803
-0.09844
-0.10826
-0.10860
-0.10726
-0.11613
-0.11169
-0.09850
-0.10498
-0.10836
-0.10431
-0.09213
-0.10081
-0.10797
-0.10298
-0.08916
-0.07316
-0.07156
-0.08109
-0.09386
-0.10507
-0.10662
-0.10230
-0.09225
-0.08102
-0.08318
-0.07591
-0.08290
-0.08483
-0.09115
-0.08523
-0.05650
-0.03190
0.00040
0.01829
0.01363
0.03366
0.03641
0.03491
0.03421
0.04425
0.05014
0.04947
0.04774
0.01823
-0.02203
-0.07854
-0.11356
-0.12049
-0.12486
-0.13791
-0.15172
-0.15479
-0.17446
-0.19494
-0.20973
-0.20525
-0.19366
-0.18076
-0.17727
-0.19370
-0.21758
-0.25075
-0.25432
-0.20004
-0.06667
0.11353
0.38859
0.74181
1.11434
1.43720
1.59708
1.52001
1.18425
0.68784
0.23710
-0.07038
-0.20769
-0.24793
-0.23180
-0.21921
-0.22296
-0.25057
-0.29282
-0.30865
-0.32483
-0.31082
-0.32023
-0.32307
-0.32817
-0.33066
-0.32979
-0.32182
-0.32488
-0.33321
-0.33307
-0.33855
-0.32547
-0.31266
-0.30624
-0.30974
-0.31383
-0.31163
-0.32451
-0.31654
-0.31432
-0.30751
-0.28665
-0.29302
-0.27298
-0.27785
-0.28530
-0.29833
-0.28748
-0.27760
-0.27536
-0.25434
-0.25211
-0.26138
-0.26267
-0.28022
-0.26739
-0.25781
-0.23689
-0.22848
-0.21564
-0.21434
-0.19809
-0.21375
-0.22763
-0.24193
-0.24750
-0.22788
-0.21000
-0.22165
-0.21357
-0.20931
-0.21555
-0.21429
-0.21100
-0.18187
-0.16368
-0.15451
-0.16480
-0.17720
-0.18231
-0.19020
-0.19775
-0.18684
-0.18581
-0.17759
-0.17728
-0.18410
-0.19119
-0.20163
-0.21157
-0.21750
-0.21723
-0.19975
-0.19151
-0.19620
-0.18241
-0.19412
-0.21027
-0.20952
-0.19890
-0.16783
-0.17552
-0.18373
-0.18719
-0.18536
-0.18332
-0.18016
-0.19118
-0.18375
-0.16632
-0.18347
-0.19703
-0.19339
-0.18573
-0.19684
-0.19005
-0.17206
-0.17106
-0.17208
-0.17522
-0.19439
-0.20424
-0.20636
-0.20063
-0.18165
-0.15554
-0.13800
-0.13314
-0.12974
-0.12863
-0.11841
-0.11644
-0.09136
-0.05932
-0.02800
-0.01362
-0.04375
-0.04994
-0.07665
-0.08855
-0.08316
-0.08997
-0.09281
-0.11592
-0.16407
-0.20194
-0.22357
-0.24733
-0.27475
-0.28019
-0.27065
-0.26408
-0.25874
-0.27540
-0.29865
-0.32159
-0.32521
-0.31884
-0.31520
-0.30993
-0.29951
-0.25652
-0.14285
0.03515
0.28716
0.63489
1.02808
1.36873
1.49584
1.34114
0.94597
0.44398
-0.00277
-0.27877
-0.36992
-0.35678
-0.29424
-0.27264
-0.28614
-0.32312
-0.37004
-0.40734
-0.40444
-0.40116
-0.37544
-0.36841
-0.37923
-0.38886
-0.39463
-0.39863
-0.40138
-0.39926
-0.38333
-0.36848
-0.38635
-0.39309
-0.39570
-0.39481
-0.39033
-0.38874
-0.37303
-0.37101
-0.38820
-0.38068
-0.37833
-0.38057
-0.38507
-0.37818
-0.36217
-0.34669
-0.33987
-0.33915
-0.34902
-0.35522
-0.33858
-0.32389
-0.31746
-0.29434
-0.29676
-0.29187
-0.29099
-0.30391
-0.30616
-0.29297
-0.28500
-0.27594
-0.27891
-0.28614
-0.27900
-0.28368
-0.29568
-0.29127
-0.27800
-0.25462
-0.22509
-0.22499
-0.22325
-0.23019
-0.23075
-0.23679
-0.24117
-0.23260
-0.22968
-0.23141
-0.22698
-0.24106
-0.24942
-0.26262
-0.25987
-0.25239
-0.24049
-0.23438
-0.24155
-0.25104
-0.26161
-0.27329
-0.26628
-0.25337
-0.23748
-0.22177
-0.23498
-0.22418
-0.25378
-0.26710
-0.24817
-0.23632
-0.22382
-0.22793
-0.22060
-0.21954
-0.22372
-0.23089
-0.24365
-0.24489
-0.23812
-0.24003
-0.23251
-0.21495
-0.21148
-0.22146
-0.22934
-0.24218
-0.23657
-0.23317
-0.21620
-0.20289
-0.18940
-0.18110
-0.17122
-0.16863
-0.15290
-0.13858
-0.12321
-0.09887
-0.07975
-0.07017
-0.09322
-0.11468
-0.11543
-0.12105
-0.12266
-0.13902
-0.16935
-0.20981
-0.24319
-0.27370
-0.30770
-0.30788
-0.29980
-0.29330
-0.29827
-0.29939
-0.32173
-0.33922
-0.34882
-0.35706
-0.34197
-0.32833
-0.32173
-0.34068
-0.35990
-0.35414
-0.28466
-0.13002
0.12175
0.47070
0.85158
1.20179
1.39921
1.34589
1.04240
0.55781
0.10095
-0.20253
-0.35325
-0.36973
-0.33650
-0.30976
-0.32130
-0.36204
-0.41494
-0.42672
-0.42788
-0.42468
-0.41748
-0.42141
-0.42687
-0.43599
-0.44628
-0.43999
-0.43964
-0.44094
-0.43465
-0.42695
-0.42487
-0.42625
-0.42853
-0.42964
-0.42223
-0.42190
-0.41121
-0.41159
-0.40516
-0.40402
-0.41180
-0.41698
-0.40463
-0.39117
-0.39133
-0.38743
-0.39699
-0.38873
-0.38892
-0.37599
-0.37361
-0.36538
-0.36228
-0.35472
-0.34805
-0.35140
-0.34838
-0.35632
-0.34781
-0.33126
-0.32731
-0.33343
-0.33104
-0.33193
-0.34800
-0.35434
-0.34469
-0.32891
-0.31766
-0.30687
-0.30323
-0.29551
-0.29198
-0.30522
-0.30514
-0.27556
-0.26461
-0.26555
-0.26472
-0.28370
-0.27738
-0.29799
-0.31092
-0.30783
-0.31064
-0.29714
-0.29550
-0.29337
-0.30496
-0.31346
-0.32450
-0.32779
-0.31042
-0.29645
-0.29231
-0.29832
-0.29123
-0.30031
-0.31372
-0.32486
-0.32247
-0.31164
-0.29787
-0.29086
-0.28332
-0.29574
-0.30613
-0.31639
-0.32384
-0.31016
-0.30099
-0.29618
-0.30377
-0.30293
-0.30966
-0.32274
-0.31804
-0.31244
-0.31360
-0.30958
-0.30201
-0.30203
-0.30584
-0.31052
-0.30125
-0.28237
-0.26006
-0.24535
-0.24421
-0.23261
-0.21906
-0.20643
-0.17509
-0.15935
-0.15542
-0.14570
-0.15649
-0.16889
-0.18518
-0.20123
-0.22732
-0.24550
-0.27076
-0.26996
-0.28722
-0.31021
-0.33611
-0.36311
-0.38673
-0.38740
-0.37209
-0.36316
-0.36053
-0.38207
-0.38640
-0.40670
-0.39826
-0.41002
-0.42474
-0.42016
-0.41992
-0.39773
-0.34010
-0.22250
-0.03894
0.23338
0.58769
0.98241
1.29255
1.40807
1.22970
0.86705
0.39009
-0.01839
-0.30864
-0.44629
-0.44745
-0.40534
-0.36375
-0.36454
-0.39935
-0.43961
-0.46602
-0.47889
-0.47325
-0.46673
-0.45769
-0.45396
-0.46956
-0.47167
-0.48544
-0.47603
-0.47085
-0.46704
-0.44800
-0.45137
-0.44663
-0.45885
-0.46612
-0.47489
-0.45590
-0.43310
-0.41815
-0.42974
-0.43736
-0.44712
-0.46538
-0.46051
-0.44529
-0.43691
-0.41543
-0.41117
-0.40843
-0.40757
-0.42392
-0.41481
-0.41604
-0.39290
-0.37826
-0.35231
-0.35159
-0.35251
-0.35465
-0.36696
-0.37168
-0.37327
-0.35959
-0.33825
-0.32708
-0.33656
-0.34310
-0.34786
-0.34194
-0.34431
-0.34152
-0.32056
-0.31496
-0.31171
-0.30182
-0.28821
-0.26834
-0.26791
-0.26487
-0.25340
-0.24414
-0.25211
-0.25132
-0.27240
-0.27482
-0.27522
-0.27478
-0.27151
-0.26709
-0.26855
-0.27725
-0.27786
-0.27741
-0.28980
-0.29133
-0.29023
-0.27747
-0.26994
-0.28097
-0.28331
-0.29248
-0.29873
-0.29707
-0.29281
-0.27676
-0.26848
-0.27348
-0.28809
-0.28870
-0.27418
-0.27379
-0.26803
-0.27411
-0.26360
-0.27312
-0.27969
-0.27834
-0.29597
-0.28590
-0.27060
-0.25453
-0.24051
-0.25116
-0.26806
-0.29144
-0.29176
-0.28112
-0.26078
-0.23404
-0.20997
-0.18886
-0.18617
-0.17095
-0.17571
-0.17132
-0.14629
-0.11081
-0.07612
-0.06233
-0.08217
-0.11317
-0.11471
-0.13700
-0.16019
-0.18878
-0.21866
-0.23410
-0.24401
-0.25541
-0.27820
-0.30423
-0.32250
-0.32008
-0.31543
-0.29720
-0.29212
-0.29978
-0.31244
-0.32417
-0.33566
-0.35183
-0.37021
-0.34490
-0.25765
-0.07548
0.18035
0.51254
0.87751
1.20863
1.39855
1.35159
1.05214
0.60405
0.13967
-0.19155
-0.37301
-0.42495
-0.36905
-0.32367
-0.30718
-0.32890
-0.37046
-0.39248
-0.40213
-0.40317
-0.39217
-0.38515
-0.38283
-0.37066
-0.38364
-0.37863
-0.37126
-0.37524
-0.38192
-0.37191
-0.37166
-0.37849
-0.35720
-0.37063
-0.38499
-0.37818
-0.37667
-0.35809
-0.33911
-0.33453
-0.34564
-0.34936
-0.35908
-0.34914
-0.34170
-0.32900
-0.31455
-0.29912
-0.28174
-0.28875
-0.27963
-0.28593
-0.30444
-0.30015
-0.27827
-0.25933
-0.24681
-0.24859
-0.24000
-0.23563
-0.23163
-0.23845
-0.23371
-0.23297
-0.21262
-0.23032
-0.23099
-0.22547
-0.23596
-0.24606
-0.21952
-0.18558
-0.16199
-0.14419
-0.14230
-0.13693
-0.13607
-0.13040
-0.12133
-0.13993
-0.14629
-0.13539
-0.13176
-0.13284
-0.14450
-0.14471
-0.15626
-0.15736
-0.15883
-0.15031
-0.14108
-0.14179
-0.13061
-0.13363
-0.13155
-0.13408
-0.13748
-0.14144
-0.13383
-0.12465
-0.12743
-0.12684
-0.11963
-0.12005
-0.11320
-0.12698
-0.11920
-0.13129
-0.11784
-0.11321
-0.12617
-0.12104
-0.11999
-0.12203
-0.10075
-0.09226
-0.09807
-0.11707
-0.11422
-0.12439
-0.12289
-0.12230
-0.10870
-0.08592
-0.08940
-0.09274
-0.11414
-0.09860
-0.06866
-0.04097
-0.02546
0.00379
0.02749
0.03291
0.04721
0.05676
0.04887
0.04223
0.05117
0.05329
0.04804
0.02492
-0.02207
-0.06449
-0.10550
-0.11667
-0.13993
-0.13704
-0.12839
-0.13794
-0.14978
-0.16872
-0.17483
-0.17555
-0.17073
-0.16726
-0.14484
-0.15436
-0.17027
-0.18544
-0.17310
-0.10889
0.02434
0.28092
0.62654
1.02610
1.38432
1.61729
1.62466
1.35043
0.87318
0.37239
0.01817
-0.16338
-0.20640
-0.18738
-0.14002
-0.12760
-0.17131
-0.21569
-0.25037
-0.24013
-0.21390
-0.21126
-0.20238
-0.22554
-0.24332
-0.24203
-0.23494
-0.22900
-0.22243
-0.22505
-0.20921
-0.22341
-0.23061
-0.23895
-0.24040
-0.23230
-0.22528
-0.21847
-0.20983
-0.21367
-0.22438
-0.21207
-0.21133
-0.19589
-0.18514
-0.18151
-0.16455
-0.16733
-0.17339
-0.17849
-0.17804
-0.16998
-0.15702
-0.12589
-0.11421
-0.11904
-0.13018
-0.12955
-0.12263
-0.13340
-0.12660
-0.11025
-0.11899
-0.11626
-0.11485
-0.11373
-0.10979
-0.09254
-0.08599
-0.06736
-0.05250
-0.04515
-0.04762
-0.04779
-0.04374
-0.05499
-0.04680
-0.04241
-0.04905
-0.06382
-0.06549
-0.06747
-0.07126
-0.07443
-0.07227
-0.05948
-0.04348
-0.04933
-0.05789
-0.07485
-0.08162
-0.09235
-0.07737
-0.06428
-0.05753
-0.04592
-0.05574
-0.06904
-0.07870
-0.08939
-0.08095
-0.07730
-0.06579
-0.03856
-0.03666
-0.04512
-0.05754
-0.06271
-0.07498
-0.07480
-0.07047
-0.04657
-0.04321
-0.05175
-0.05946
-0.06871
-0.07632
-0.07197
-0.06795
-0.05795
-0.04841
-0.05676
-0.05319
-0.04423
-0.04611
-0.03566
-0.01677
0.00390
0.02503
0.03911
0.05924
0.07461
0.09742
0.09126
0.07913
0.07760
0.08400
0.08253
0.05964
0.02439
-0.02242
-0.04278
-0.06413
-0.07611
-0.08904
-0.10712
-0.12462
-0.14544
-0.16273
-0.15953
-0.15673
-0.16603
-0.16118
-0.14590
-0.15596
-0.17080
-0.18381
-0.21622
-0.20254
-0.13403
-0.01449
0.20913
0.51010
0.87241
1.24413
1.52930
1.66640
1.53006
1.16399
0.69095
0.26689
-0.01459
-0.16533
-0.20486
-0.19312
-0.17569
-0.17387
-0.18922
-0.21377
-0.23998
-0.24908
-0.25222
-0.26519
-0.26290
-0.27432
-0.27066
-0.24535
-0.24940
-0.25698
-0.25772
-0.26392
-0.27744
-0.27900
-0.26504
-0.24968
-0.24092
-0.24992
-0.24927
-0.25379
-0.25871
-0.25667
-0.27340
-0.24671
-0.21280
-0.20246
-0.20784
-0.21835
-0.21301
-0.22555
-0.23214
-0.20963
-0.19448
-0.17408
-0.16735
-0.16492
-0.17585
-0.17678
-0.17452
-0.16191
-0.15101
-0.13834
-0.13654
-0.14184
-0.14904
-0.15863
-0.16598
-0.15063
-0.13523
-0.12289
-0.10551
-0.09782
-0.09524
-0.10359
-0.09356
-0.09846
-0.08921
-0.09147
-0.08393
-0.07870
-0.08581
-0.10742
-0.12049
-0.12126
-0.10736
-0.10645
-0.09816
-0.10554
-0.10716
-0.11141
-0.11558
-0.11742
-0.11984
-0.10628
-0.10206
-0.09674
-0.09915
-0.10339
-0.10233
-0.10553
-0.09600
-0.09916
-0.09249
-0.08665
-0.08198
-0.08671
-0.09548
-0.09724
-0.09284
-0.08437
-0.07171
-0.06746
-0.06744
-0.06926
-0.08622
-0.09025
-0.08893
-0.07892
-0.07429
-0.06690
-0.05491
-0.06035
-0.06850
-0.07691
-0.08285
-0.05287
-0.03403
-0.00594
0.01812
0.02741
0.02714
0.01965
0.03446
0.05544
0.07256
0.08732
0.09294
0.08980
0.08768
0.05704
0.03201
-0.00209
-0.02966
-0.04674
-0.05976
-0.07715
-0.08687
-0.11058
-0.13299
-0.14437
-0.14532
-0.14127
-0.14678
-0.15498
-0.15331
-0.15246
-0.15954
-0.17498
-0.18368
-0.19975
-0.19803
-0.17506
-0.09281
0.04283
0.24980
0.55540
0.93477
1.32386
1.60111
1.64302
1.41334
0.98808
0.50447
0.11939
-0.11112
-0.20978
-0.19163
-0.14772
-0.13491
-0.16135
-0.20603
-0.24449
-0.26566
-0.26736
-0.24744
-0.23992
-0.22671
-0.23545
-0.26110
-0.27351
-0.27693
-0.27957
-0.26594
-0.25108
-0.22940
-0.23335
-0.24845
-0.25452
-0.26283
-0.25791
-0.25745
-0.24632
-0.23363
-0.22462
-0.22769
-0.22622
-0.22214
-0.23375
-0.22295
-0.21402
-0.20253
-0.18692
-0.18683
-0.18316
-0.19115
-0.18971
-0.17751
-0.17413
-0.14998
-0.13022
-0.13235
-0.15493
-0.15134
-0.14735
-0.14635
-0.14091
-0.12538
-0.11616
-0.12103
-0.12658
-0.12760
-0.12391
-0.12582
-0.11519
-0.10727
-0.09640
-0.07960
-0.07746
-0.06490
-0.07111
-0.08104
-0.07905
-0.08075
-0.06907
-0.07190
-0.07736
-0.08659
-0.09264
-0.09459
-0.09192
-0.09291
-0.09560
-0.09283
-0.09806
-0.09647
-0.08763
-0.10222
-0.11569
-0.10511
-0.11137
-0.09235
-0.08350
-0.08953
-0.09180
-0.09853
-0.10032
-0.11037
-0.08791
-0.07275
-0.05475
-0.04664
-0.06872
-0.08746
-0.09282
-0.09041
-0.07065
-0.06705
-0.05951
-0.07051
-0.07982
-0.08533
-0.08607
-0.08885
-0.08104
-0.07861
-0.07034
-0.05423
-0.04589
-0.03536
-0.04035
-0.02957
-0.00323
0.01589
0.03925
0.05359
0.08358
0.10824
0.11245
0.09465
0.07723
0.07349
0.07233
0.07761
0.06751
0.03830
0.00074
-0.03335
-0.06075
-0.09289
-0.10473
-0.11090
-0.10428
-0.10220
-0.10502
-0.11977
-0.12922
-0.13439
-0.14576
-0.14804
-0.13997
-0.14433
-0.14348
-0.17304
-0.17012
-0.11445
0.02641
0.22499
0.52660
0.92609
1.33137
1.61351
1.63587
1.38660
0.95794
0.47616
0.08680
-0.14243
-0.19717
-0.15637
-0.11950
-0.10705
-0.12380
-0.15217
-0.18534
-0.20027
-0.20997
-0.21123
-0.21088
-0.21263
-0.21899
-0.20772
-0.20190
-0.18662
-0.18723
-0.19546
-0.19841
-0.20532
-0.21524
-0.20089
-0.17732
-0.16050
-0.16117
-0.16434
-0.16723
-0.18669
-0.19591
-0.18753
-0.16685
-0.14823
-0.13948
-0.13277
-0.15084
-0.15113
-0.14372
-0.14889
-0.14540
-0.13070
-0.11171
-0.10866
-0.10228
-0.10178
-0.10070
-0.10793
-0.11536
-0.09145
-0.06721
-0.05803
-0.05564
-0.06238
-0.06869
-0.06377
-0.06478
-0.07153
-0.06942
-0.06305
-0.05097
-0.05718
-0.05032
-0.05102
-0.04456
-0.01196
-0.01719
0.00101
0.01699
0.00855
0.00481
0.00365
0.00193
-0.00518
-0.00234
-0.00724
-0.01902
-0.01576
-0.02850
-0.03278
-0.02447
-0.02326
-0.01804
-0.02414
-0.00978
-0.00887
-0.01061
-0.01545
-0.02629
-0.03213
-0.02168
-0.01322
-0.00700
0.00640
-0.00605
-0.01875
-0.03356
-0.04895
-0.05028
-0.02692
-0.00850
-0.01066
-0.01305
-0.02229
-0.02523
-0.03010
-0.03898
-0.03438
-0.02244
-0.00805
0.00125
-0.02148
-0.03375
-0.03451
-0.05741
-0.05479
-0.03650
-0.00835
0.01530
0.03228
0.03179
0.03513
0.02931
0.03272
0.04927
0.07890
0.12767
0.16142
0.17249
0.14851
0.13271
0.11304
0.10193
0.10371
0.09639
0.06673
0.03109
-0.00865
-0.03320
-0.05669
-0.07053
-0.09193
-0.09744
-0.08168
-0.07710
-0.07918
-0.09072
-0.10839
-0.12388
-0.12549
-0.09822
-0.12035
-0.14124
-0.12951
-0.06955
0.05932
0.25846
0.57196
0.92414
1.29960
1.57488
1.62748
1.40938
0.99721
0.50206
0.12015
-0.10712
-0.16760
-0.13870
-0.10193
-0.07311
-0.10838
-0.15185
-0.18406
-0.19766
-0.17855
-0.16296
-0.16208
-0.17003
-0.18730
-0.19186
-0.19514
-0.19458
-0.17749
-0.16805
-0.16437
-0.15801
-0.17479
-0.17138
-0.16806
-0.17986
-0.18099
-0.16311
-0.15444
-0.13980
-0.14026
-0.15050
-0.15627
-0.14889
-0.14518
-0.14725
-0.13227
-0.11765
-0.12305
-0.12991
-0.11515
-0.11927
-0.11871
-0.10534
-0.10095
-0.09889
-0.08179
-0.07961
-0.08012
-0.06625
-0.06638
-0.05833
-0.05615
-0.06298
-0.05186
-0.06078
-0.06794
-0.06166
-0.06539
-0.05748
-0.04547
-0.04195
-0.04151
-0.02964
-0.02495
-0.01514
-0.00218
0.01072
0.03067
0.04306
0.04533
0.02758
0.02086
0.01100
-0.00596
-0.00240
0.01010
0.02906
0.01969
0.01471
-0.00569
-0.00908
-0.02925
-0.03344
-0.01970
-0.00599
0.01178
0.01306
0.00539
0.00287
0.00357
-0.01843
-0.01389
-0.01293
-0.00965
0.01107
0.01213
0.01196
0.00548
0.00237
0.00182
0.00516
0.01599
0.01169
0.01190
0.00043
0.00577
0.01350
0.01044
0.00163
0.00045
0.01408
0.01906
0.00711
-0.00363
0.00235
0.00483
0.01346
0.02565
0.03094
0.04967
0.05195
0.05607
0.05773
0.05404
0.05706
0.07499
0.10316
0.14406
0.17484
0.17014
0.17287
0.16463
0.13824
0.15657
0.16624
0.15542
0.12378
0.08510
0.04890
0.00752
-0.01620
-0.04183
-0.04867
-0.04501
-0.02036
-0.01983
-0.03768
-0.05070
-0.06056
-0.06510
-0.06406
-0.06231
-0.05354
-0.06481
-0.07731
-0.09079
-0.03939
0.09387
0.33209
0.66010
1.02921
1.39387
1.67036
1.70220
1.46124
1.01899
0.54527
0.15771
-0.06660
-0.15063
-0.13331
-0.06806
-0.04918
-0.06284
-0.08393
-0.12914
-0.14237
-0.15039
-0.14416
-0.12778
-0.13183
-0.14766
-0.14619
-0.14554
-0.13234
-0.12774
-0.11664
-0.11916
-0.11247
-0.10710
-0.11611
-0.11898
-0.12714
-0.11215
-0.11015
-0.10391
-0.11253
-0.10938
-0.10697
-0.09506
-0.07296
-0.06356
-0.06103
-0.06576
-0.06294
-0.06184
-0.06917
-0.05736
-0.04809
-0.03846
-0.01559
-0.00543
-0.01246
-0.02254
-0.02508
-0.02374
-0.01008
0.00696
0.00723
0.01216
0.00690
0.00016
-0.01632
-0.03337
-0.00513
0.02191
0.05815
0.08160
0.08442
0.08765
0.07241
0.06336
0.07295
0.08570
0.08551
0.08001
0.06014
0.05677
0.05811
0.04168
0.03760
0.03613
0.04620
0.06153
0.05696
0.05597
0.06143
0.03941
0.02452
0.02943
0.04342
0.06839
0.06952
0.06542
0.05915
0.05595
0.04981
0.05386
0.05967
0.06708
0.06124
0.07041
0.07250
0.07560
0.07320
0.07256
0.07902
0.07627
0.09205
0.09897
0.10955
0.10901
0.10344
0.08977
0.08143
0.06651
0.06763
0.07485
0.09740
0.10501
0.11138
0.11685
0.13788
0.15775
0.17742
0.19272
0.20335
0.23300
0.25235
0.26560
0.26408
0.26328
0.25805
0.24737
0.23388
0.22044
0.18873
0.14933
0.12963
0.11548
0.11988
0.10728
0.07989
0.05847
0.04843
0.03131
0.02728
0.01897
0.03546
0.03699
0.04694
0.04578
0.03220
0.01064
-0.00709
0.00526
0.09395
0.26071
0.50211
0.82201
1.18806
1.55118
1.79838
1.85908
1.66905
1.27655
0.79495
0.37154
0.10325
-0.01468
-0.02961
0.00040
0.04400
0.05438
0.03755
0.00780
-0.02353
-0.03354
-0.02761
-0.03666
-0.06362
-0.07538
-0.05616
-0.03755
-0.02164
-0.01546
-0.02386
-0.03112
-0.03695
-0.04025
-0.04542
-0.02191
-0.01371
-0.01129
-0.01710
-0.02652
-0.04527
-0.02785
-0.00814
0.00303
0.00471
-0.00632
-0.01125
-0.00433
0.00026
0.00804
0.00823
0.02244
0.02652
0.02865
0.03532
0.03639
0.04967
0.05963
0.05814
0.07079
0.08696
0.08193
0.07397
0.06179
0.06235
0.05438
0.04979
0.06595
0.07859
0.08027
0.08247
0.07228
0.09101
0.09630
0.11884
0.13926
0.15174
0.15961
0.13869
0.13106
0.12349
0.11935
0.10404
0.12140
0.12840
0.12904
0.13079
0.12754
0.10581
0.07576
0.06118
0.06410
0.07748
0.09194
0.09838
0.09051
0.09048
0.08400
0.07303
0.08351
0.10029
0.09906
0.11466
0.11996
0.12287
0.11647
0.10461
0.09481
0.08953
0.11146
0.11464
0.12118
0.12545
0.11583
0.09985
0.08875
0.09612
0.09788
0.09492
0.11575
0.11333
0.09493
0.07974
0.07367
0.09114
0.10866
0.11140
0.12561
0.15357
0.17122
0.17611
0.17433
0.18549
0.20502
0.23685
0.26539
0.27145
0.26066
0.25729
0.23104
0.21934
0.19836
0.18929
0.16356
0.12773
0.10641
0.06788
0.04146
0.02119
0.00370
0.00213
-0.00604
0.01277
0.00675
-0.00040
-0.01398
-0.00953
-0.02139
-0.02755
-0.05085
-0.02499
0.04440
0.18716
0.40740
0.72672
1.13923
1.55201
1.81804
1.80612
1.51250
1.01990
0.50588
0.12751
-0.04531
-0.08555
-0.04366
-0.00251
-0.00533
-0.03632
-0.08749
-0.12028
-0.13274
-0.12953
-0.12696
-0.13094
-0.12849
-0.10970
-0.10397
-0.12208
-0.13970
-0.14235
-0.14768
-0.15372
-0.13971
-0.12207
-0.12015
-0.13285
-0.16205
-0.15622
-0.16591
-0.15578
-0.15426
-0.13149
-0.11807
-0.13816
-0.13828
-0.13532
-0.13717
-0.13167
-0.13283
-0.12330
-0.11109
-0.08566
-0.08231
-0.10244
-0.09939
-0.09280
-0.08009
-0.07244
-0.05786
-0.05970
-0.04955
-0.05340
-0.06517
-0.05845
-0.05174
-0.06626
-0.05813
-0.05063
-0.04836
-0.05779
-0.06432
-0.05037
-0.04055
-0.01875
-0.00504
0.00590
0.00492
-0.00452
-0.01068
-0.01608
-0.00066
0.00810
0.00388
0.00772
-0.00155
-0.00933
-0.01991
-0.03674
-0.03381
-0.02360
-0.01291
-0.01381
-0.01258
-0.02268
-0.04085
-0.05213
-0.06252
-0.05477
-0.04603
-0.04101
-0.04342
-0.03516
-0.02756
-0.03623
-0.04360
-0.04784
-0.04122
-0.03639
-0.01748
-0.01242
-0.01680
-0.02625
-0.03696
-0.04001
-0.04327
-0.03212
-0.02326
-0.02062
-0.01425
-0.01485
-0.02252
-0.04608
-0.05609
-0.05118
-0.05261
-0.03313
-0.01240
-0.00943
-0.00699
-0.00571
0.00122
0.02667
0.04806
0.06258
0.06681
0.07805
0.09547
0.10532
0.09615
0.09968
0.10816
0.11058
0.12205
0.10572
0.08974
0.04370
0.00129
-0.02573
-0.04352
-0.06405
-0.07894
-0.09439
-0.11652
-0.11113
-0.11164
-0.12302
-0.12759
-0.12902
-0.13781
-0.14347
-0.12597
-0.14152
-0.15539
-0.17215
-0.15180
-0.07129
0.06562
0.25271
0.55992
0.90260
1.28055
1.57914
1.66796
1.50464
1.11451
0.66362
0.25167
-0.02694
-0.15509
-0.18521
-0.14738
-0.11756
-0.11949
-0.14887
-0.19308
-0.22339
-0.24194
-0.24493
-0.23768
-0.23739
-0.23347
-0.23008
-0.22340
-0.23357
-0.24395
-0.25179
-0.25025
-0.25344
-0.24513
-0.23504
-0.22718
-0.23908
-0.23884
-0.24127
-0.25123
-0.24654
-0.24577
-0.24388
-0.21593
-0.21172
-0.21359
-0.22205
-0.22576
-0.23446
-0.23109
-0.21692
-0.20604
-0.18736
-0.18152
-0.19175
-0.20228
-0.19149
-0.17897
-0.17618
-0.15849
-0.16522
-0.15404
-0.15443
-0.15468
-0.14791
-0.13732
-0.13696
-0.14646
-0.15163
-0.14529
-0.13447
-0.13873
-0.14861
-0.14270
-0.13604
-0.10927
-0.11302
-0.10413
-0.09981
-0.11133
-0.12131
-0.10732
-0.10192
-0.07503
-0.08018
-0.08169
-0.08765
-0.09947
-0.10664
-0.12145
-0.13141
-0.12074
-0.10222
-0.10315
-0.11008
-0.11168
-0.11997
-0.13723
-0.14056
-0.12964
-0.12644
-0.11741
-0.12494
-0.12762
-0.12237
-0.12306
-0.13887
-0.14277
-0.13705
-0.11034
-0.11327
-0.11718
-0.11125
-0.11220
-0.10802
-0.11738
-0.11448
-0.11338
-0.11517
-0.11813
-0.10395
-0.11766
-0.12687
-0.11271
-0.11808
-0.12137
-0.10815
-0.11071
-0.12263
-0.13214
-0.13485
-0.13096
-0.11634
-0.11113
-0.08090
-0.06421
-0.05858
-0.05717
-0.06166
-0.05425
-0.04098
-0.00130
0.03210
0.05503
0.07814
0.05380
0.01773
0.00805
-0.00114
0.00056
-0.00961
-0.03135
-0.06699
-0.09574
-0.12649
-0.15458
-0.18868
-0.19919
-0.18762
-0.18397
-0.18926
-0.19782
-0.21549
-0.21980
-0.23446
-0.23022
-0.22630
-0.24138
-0.25035
-0.25492
-0.24879
-0.17863
-0.04864
0.17086
0.48012
0.85078
1.23831
1.49915
1.50403
1.22598
0.76035
0.29405
-0.04770
-0.23091
-0.26831
-0.24424
-0.20233
-0.19582
-0.22939
-0.27771
-0.30888
-0.32195
-0.29900
-0.28842
-0.29096
-0.29635
-0.31626
-0.33114
-0.33195
-0.31736
-0.29740
-0.29567
-0.29888
-0.30216
-0.29720
-0.31931
-0.33896
-0.31942
-0.30510
-0.29029
-0.27742
-0.27770
-0.27739
-0.28371
-0.30218
-0.29670
-0.28073
-0.25345
-0.24928
-0.25288
-0.26028
-0.26679
-0.27208
-0.27096
-0.26335
-0.24535
-0.22974
-0.21538
-0.23054
-0.22270
-0.22495
-0.22077
-0.21746
-0.20991
-0.20270
-0.19923
-0.20094
-0.19367
-0.20300
-0.20866
-0.21396
-0.20780
-0.19496
-0.16204
-0.15144
-0.13492
-0.13938
-0.15076
-0.15031
-0.14780
-0.15207
-0.16039
-0.14369
-0.14305
-0.14873
-0.16571
-0.17491
-0.17928
-0.18809
-0.17573
-0.15927
-0.16036
-0.16763
-0.17790
-0.17795
-0.18202
-0.18368
-0.17235
-0.17052
-0.17028
-0.16130
-0.15754
-0.16557
-0.17447
-0.17507
-0.16264
-0.15629
-0.14605
-0.15056
-0.16356
-0.17708
-0.17799
-0.17073
-0.15843
-0.16371
-0.15444
-0.15907
-0.16047
-0.17052
-0.17600
-0.17458
-0.18582
-0.18346
-0.16640
-0.14870
-0.14737
-0.15247
-0.16778
-0.16172
-0.14087
-0.11833
-0.08743
-0.07394
-0.06329
-0.06072
-0.05542
-0.03776
-0.02399
-0.02311
-0.01083
-0.01042
-0.01004
-0.02870
-0.06595
-0.09518
-0.11604
-0.13762
-0.16361
-0.18492
-0.19496
-0.21772
-0.23197
-0.24313
-0.26162
-0.26268
-0.26092
-0.24896
-0.24753
-0.24732
-0.24512
-0.25793
-0.26913
-0.27975
-0.29278
-0.28083
-0.22587
-0.11739
0.07033
0.33396
0.66377
1.01348
1.32287
1.46382
1.32956
0.95914
0.51159
0.09668
-0.18679
-0.31578
-0.33602
-0.28839
-0.23833
-0.24937
-0.28301
-0.32876
-0.34788
-0.36446
-0.36326
-0.35714
-0.34462
-0.33961
-0.34572
-0.34161
-0.33915
-0.34529
-0.35341
-0.35945
-0.36451
-0.34825
-0.33885
-0.32629
-0.30980
-0.32102
-0.33708
-0.33887
-0.32778
-0.32223
-0.31260
-0.31430
-0.32330
-0.31502
-0.31624
-0.31949
-0.30540
-0.30176
-0.29487
-0.29635
-0.28486
-0.27882
-0.29264
-0.28564
-0.27561
-0.25914
-0.25804
-0.25548
-0.25862
-0.26446
-0.25006
-0.24673
-0.24324
-0.24163
-0.23599
-0.23847
-0.23695
-0.24330
-0.23700
-0.24146
-0.22223
-0.19588
-0.18063
-0.15994
-0.15763
-0.16811
-0.17970
-0.19471
-0.19972
-0.18791
-0.19208
-0.18469
-0.18278
-0.17575
-0.18801
-0.19861
-0.21793
-0.21591
-0.20424
-0.19109
-0.20072
-0.20578
-0.20673
-0.22196
-0.22737
-0.22505
-0.21799
-0.20632
-0.19073
-0.17883
-0.18718
-0.20150
-0.22189
-0.22906
-0.21596
-0.21252
-0.20305
-0.19621
-0.18240
-0.20194
-0.22099
-0.22209
-0.22176
-0.21918
-0.21757
-0.21553
-0.18920
-0.19710
-0.21878
-0.21916
-0.22346
-0.22356
-0.20619
-0.17754
-0.15630
-0.14052
-0.13991
-0.13809
-0.12692
-0.11111
-0.08075
-0.04243
-0.03236
-0.03563
-0.04541
-0.05834
-0.09097
-0.10917
-0.14339
-0.16788
-0.18171
-0.21090
-0.22930
-0.24700
-0.26680
-0.28451
-0.28754
-0.28011
-0.27407
-0.28383
-0.28686
-0.29762
-0.31020
-0.30706
-0.29911
-0.30516
-0.31488
-0.31114
-0.23383
-0.10413
0.13375
0.48404
0.87737
1.23767
1.42400
1.33978
0.98275
0.50483
0.05635
-0.23228
-0.35955
-0.36814
-0.31402
-0.26718
-0.26414
-0.30711
-0.33967
-0.37106
-0.38456
-0.39811
-0.38841
-0.35978
-0.34927
-0.36792
-0.37976
-0.38314
-0.38039
-0.37864
-0.37435
-0.35829
-0.34976
-0.34538
-0.33928
-0.34933
-0.35536
-0.36060
-0.36403
-0.36250
-0.34118
-0.33649
-0.33844
-0.35209
-0.36003
-0.35171
-0.33177
-0.32100
-0.30715
-0.30449
-0.30671
-0.31048
-0.31960
-0.31560
-0.30586
-0.29534
-0.28688
-0.27045
-0.26121
-0.26509
-0.27500
-0.28029
-0.27193
-0.26445
-0.25263
-0.24239
-0.23869
-0.24903
-0.25709
-0.26687
-0.24969
-0.24534
-0.23548
-0.20823
-0.19114
-0.17917
-0.18603
-0.19738
-0.19885
-0.21146
-0.21328
-0.18338
-0.18396
-0.17719
-0.19973
-0.21982
-0.22184
-0.22901
-0.22214
-0.20595
-0.20387
-0.20743
-0.21220
-0.21540
-0.22098
-0.23185
-0.23055
-0.22919
-0.21600
-0.20797
-0.20202
-0.20804
-0.21786
-0.23486
-0.22485
-0.21055
-0.19177
-0.19268
-0.20248
-0.20322
-0.22205
-0.22595
-0.21725
-0.21875
-0.21340
-0.21546
-0.20374
-0.20715
-0.23669
-0.24942
-0.24828
-0.23924
-0.23327
-0.21622
-0.20195
-0.19108
-0.17361
-0.16538
-0.16193
-0.15184
-0.13526
-0.10871
-0.08191
-0.04797
-0.03315
-0.04918
-0.07223
-0.08963
-0.08687
-0.07835
-0.09073
-0.11628
-0.15829
-0.20979
-0.24348
-0.25784
-0.26477
-0.27060
-0.28760
-0.29399
-0.29421
-0.28851
-0.29335
-0.29837
-0.28941
-0.28358
-0.28247
-0.30744
-0.34107
-0.34978
-0.33319
-0.26114
-0.10736
0.13689
0.48043
0.88577
1.25064
1.44631
1.38966
1.07152
0.62444
0.17332
-0.15925
-0.33112
-0.37164
-0.34134
-0.30529
-0.29972
-0.32796
-0.36216
-0.38054
-0.38603
-0.37895
-0.38134
-0.37712
-0.38109
-0.39541
-0.40540
-0.40439
-0.39864
-0.37691
-0.36944
-0.36781
-0.37312
-0.39315
-0.39703
-0.39284
-0.36890
-0.34294
-0.34795
-0.36696
-0.37306
-0.37621
-0.37154
-0.37021
-0.35649
-0.33030
-0.32402
-0.31534
-0.33927
-0.34893
-0.33777
-0.33574
-0.32601
-0.31616
-0.29706
-0.28281
-0.27654
-0.26969
-0.28655
-0.30025
-0.30609
-0.28562
-0.26384
-0.24616
-0.25148
-0.25542
-0.25078
-0.25838
-0.24894
-0.25513
-0.24765
-0.23622
-0.23971
-0.24192
-0.23428
-0.21520
-0.19221
-0.18604
-0.16832
-0.16711
-0.16882
-0.16272
-0.18495
-0.19936
-0.20163
-0.20002
-0.18740
-0.17146
-0.17041
-0.18863
-0.20846
-0.21389
-0.20902
-0.21587
-0.21823
-0.20966
-0.18343
-0.18209
-0.19524
-0.22329
-0.22455
-0.21692
-0.22132
-0.20653
-0.18738
-0.18431
-0.18839
-0.20726
-0.21622
-0.20177
-0.20572
-0.20383
-0.20836
-0.19940
-0.18707
-0.18500
-0.18095
-0.18815
-0.20634
-0.20768
-0.21045
-0.20247
-0.20295
-0.20687
-0.21078
-0.21252
-0.20221
-0.19870
-0.19449
-0.17033
-0.15572
-0.14558
-0.14099
-0.13397
-0.12494
-0.12166
-0.08734
-0.02893
-0.01751
-0.02549
-0.04573
-0.05946
-0.06708
-0.06851
-0.09526
-0.13066
-0.14495
-0.16638
-0.20611
-0.21632
-0.24773
-0.24435
-0.24620
-0.24047
-0.23129
-0.25423
-0.27729
-0.28435
-0.28170
-0.28440
-0.27959
-0.27929
-0.28937
-0.29782
-0.25362
-0.14753
0.03889
0.34080
0.72254
1.14422
1.41950
1.43705
1.15985
0.71359
0.22993
-0.13479
-0.32709
-0.35653
-0.31069
-0.25665
-0.23591
-0.25118
-0.29103
-0.33697
-0.37974
-0.39325
-0.38232
-0.35725
-0.33888
-0.34131
-0.35901
-0.36581
-0.37494
-0.38063
-0.38041
-0.35012
-0.33500
-0.33714
-0.34462
-0.34886
-0.36288
-0.35363
-0.34557
-0.35145
-0.34095
-0.32066
-0.30893
-0.32216
-0.31885
-0.32431
-0.31930
-0.31720
-0.31805
-0.31077
-0.30366
-0.29653
-0.30814
-0.30003
-0.28782
-0.27848
-0.26178
-0.24876
-0.24594
-0.24745
-0.24614
-0.25952
-0.27567
-0.28371
-0.26544
-0.24260
-0.25143
-0.25307
-0.24718
-0.24622
-0.23681
-0.21473
-0.20264
-0.19344
-0.20172
-0.19786
-0.19199
-0.18777
-0.17399
-0.16495
-0.17327
-0.17419
-0.17289
-0.18549
-0.18945
-0.20341
-0.21450
-0.19901
-0.19976
-0.19335
-0.18411
-0.18506
-0.19986
-0.21585
-0.22001
-0.23006
-0.22128
-0.20503
-0.19675
-0.18718
-0.19613
-0.20306
-0.20344
-0.20599
-0.20485
-0.22002
-0.20958
-0.20508
-0.21703
-0.20255
-0.20232
-0.19535
-0.20136
-0.19516
-0.21269
-0.21705
-0.20333
-0.20661
-0.19693
-0.20366
-0.21560
-0.20815
-0.21202
-0.19705
-0.19691
-0.21104
-0.21207
-0.21178
-0.19326
-0.17699
-0.16260
-0.15198
-0.14098
-0.12744
-0.10081
-0.10309
-0.13093
-0.12297
-0.08277
-0.03876
-0.00430
-0.02396
-0.04337
-0.06794
-0.09619
-0.10954
-0.13042
-0.14057
-0.15338
-0.17249
-0.20611
-0.22860
-0.25524
-0.28322
-0.28739
-0.28195
-0.27942
-0.26771
-0.26802
-0.27834
-0.28912
-0.28691
-0.29300
-0.30587
-0.34208
-0.33615
-0.26216
-0.12419
0.09902
0.40138
0.76058
1.13026
1.37619
1.39512
1.13919
0.71057
0.24795
-0.09271
-0.29200
-0.35786
-0.33667
-0.28934
-0.26736
-0.28817
-0.31323
-0.34340
-0.36414
-0.36484
-0.36259
-0.35076
-0.34433
-0.35506
-0.34462
-0.35826
-0.36263
-0.35531
-0.35265
-0.34568
-0.33519
-0.33862
-0.33809
-0.32946
-0.34920
-0.36697
-0.35577
-0.34190
-0.31368
-0.29465
-0.30096
-0.31569
-0.32328
-0.32640
-0.31741
-0.31057
-0.30674
-0.29020
-0.27795
-0.26090
-0.27960
-0.29729
-0.30537
-0.28856
-0.26130
-0.24569
-0.23270
-0.23855
-0.24920
-0.25854
-0.25425
-0.24452
-0.23596
-0.22335
-0.21806
-0.23314
-0.23031
-0.22794
-0.22067
-0.21187
-0.20384
-0.17913
-0.16890
-0.16932
-0.15788
-0.15833
-0.16612
-0.17972
-0.17839
-0.16509
-0.16167
-0.16598
-0.17614
-0.18062
-0.17085
-0.17850
-0.18079
-0.19432
-0.17940
-0.17220
-0.17479
-0.18830
-0.19695
-0.20158
-0.19901
-0.20099
-0.19358
-0.16622
-0.17529
-0.17783
-0.18152
-0.18627
-0.18180
-0.17817
-0.16105
-0.15557
-0.14708
-0.16645
-0.19468
-0.21294
-0.20457
-0.19110
-0.18387
-0.17132
-0.16700
-0.16213
-0.17440
-0.19799
-0.18428
-0.18617
-0.16417
-0.14842
-0.15511
-0.15321
-0.17112
-0.17020
-0.15946
-0.14524
-0.12310
-0.12576
-0.10876
-0.08473
-0.05199
-0.03941
-0.04715
-0.03944
-0.04213
-0.01774
0.00036
-0.00425
-0.01018
-0.02357
-0.04154
-0.06829
-0.09885
-0.12486
-0.14082
-0.15001
-0.15962
-0.17170
-0.19934
-0.22516
-0.23666
-0.23792
-0.23390
-0.23760
-0.23745
-0.23150
-0.22664
-0.23458
-0.23942
-0.25633
-0.27198
-0.27282
-0.25474
-0.19581
-0.04335
0.18898
0.52042
0.89134
1.24763
1.47781
1.47948
1.18022
0.70350
0.21438
-0.14036
-0.31115
-0.33411
-0.27948
-0.22340
-0.19981
-0.22078
-0.26667
-0.32004
-0.34062
-0.33478
-0.30920
-0.28243
-0.26107
-0.26694
-0.27863
-0.30505
-0.32239
-0.31792
-0.29391
-0.25978
-0.24888
-0.26903
-0.27884
-0.27018
-0.27501
-0.29535
-0.29195
-0.28979
-0.27366
-0.25772
-0.26032
-0.24767
-0.25265
-0.25397
-0.26149
-0.25906
-0.24251
-0.22950
-0.21627
-0.19405
-0.18881
-0.20650
-0.22651
-0.23405
-0.21102
-0.19065
-0.18783
-0.17120
-0.16657
-0.17023
-0.17833
-0.17250
-0.16909
-0.16568
-0.17968
-0.18671
-0.17938
-0.17896
-0.17507
-0.15681
-0.12980
-0.10525
-0.09053
-0.09433
-0.08376
-0.09008
-0.09851
-0.09996
-0.10173
-0.10131
-0.10859
-0.10184
-0.10018
-0.11146
-0.12235
-0.12481
-0.12774
-0.12240
-0.10405
-0.10320
-0.10096
-0.11236
-0.13050
-0.14792
-0.13496
-0.11691
-0.10896
-0.09075
-0.09398
-0.09603
-0.10165
-0.10961
-0.10191
-0.09881
-0.08595
-0.07391
-0.07458
-0.09111
-0.10789
-0.11194
-0.09765
-0.09284
-0.08628
-0.08384
-0.10306
-0.10498
-0.10073
-0.08722
-0.08450
-0.08890
-0.09198
-0.06922
-0.05091
-0.03858
-0.01987
-0.01668
-0.01694
-0.02009
0.01676
0.05412
0.07827
0.06003
0.04805
0.05254
0.05261
0.04334
0.02073
-0.00752
-0.03867
-0.06089
-0.08907
-0.10322
-0.13353
-0.16772
-0.18342
-0.18227
-0.16058
-0.15049
-0.16894
-0.17555
-0.19187
-0.19769
-0.19803
-0.19139
-0.19518
-0.17740
-0.15962
-0.08247
0.04518
0.26740
0.57752
0.95592
1.32654
1.57228
1.59417
1.33831
0.89293
0.41614
0.01989
-0.21168
-0.27119
-0.23112
-0.16892
-0.15113
-0.17322
-0.21180
-0.24526
-0.26685
-0.28015
-0.27505
-0.26371
-0.24057
-0.25007
-0.25282
-0.25461
-0.25632
-0.25814
-0.26052
-0.26460
-0.25279
-0.24078
-0.24589
-0.25599
-0.28041
-0.27413
-0.27047
-0.25224
-0.23510
-0.22994
-0.23971
-0.24047
-0.23345
-0.22361
-0.23409
-0.23247
-0.20787
-0.20607
-0.21351
-0.21648
-0.20840
-0.20840
-0.19351
-0.18732
-0.16082
-0.14739
-0.15919
-0.17570
-0.19217
-0.18939
-0.17659
-0.15808
-0.13463
-0.12294
-0.13985
-0.14788
-0.15531
-0.15347
-0.16413
-0.15762
-0.14567
-0.11085
-0.11117
-0.08351
-0.07296
-0.07583
-0.09106
-0.08042
-0.07663
-0.07671
-0.06682
-0.06644
-0.08628
-0.10995
-0.12067
-0.13103
-0.12547
-0.11114
-0.09438
-0.07941
-0.07748
-0.09200
-0.11105
-0.13101
-0.11797
-0.11569
-0.09881
-0.07942
-0.08805
-0.10584
-0.10861
-0.10193
-0.10558
-0.10968
-0.09060
-0.07665
-0.06476
-0.08060
-0.08670
-0.09276
-0.09590
-0.09127
-0.07393
-0.05331
-0.04822
-0.05419
-0.06131
-0.07777
-0.09847
-0.10307
-0.09236
-0.07036
-0.06044
-0.04771
-0.04726
-0.05073
-0.03910
-0.02768
-0.01157
-0.00384
0.01868
0.04774
0.08102
0.10160
0.08413
0.06414
0.05028
0.05773
0.04165
0.02484
0.00758
-0.01818
-0.04892
-0.07716
-0.11120
-0.13237
-0.13253
-0.14034
-0.16221
-0.16673
-0.16859
-0.16192
-0.15969
-0.16103
-0.15371
-0.17056
-0.17725
-0.16918
-0.11563
0.03606
0.27482
0.61008
0.99362
1.36910
1.60328
1.58908
1.29042
0.81337
0.35115
0.00252
-0.16631
-0.20973
-0.16329
-0.12718
-0.14782
-0.18446
-0.23204
-0.26542
-0.27344
-0.26334
-0.23108
-0.23435
-0.26971
-0.27146
-0.27482
-0.26650
-0.25185
-0.24769
-0.23872
-0.24068
-0.24494
-0.24426
-0.25245
-0.25768
-0.26693
-0.27781
-0.25807
-0.21839
-0.22849
-0.24727
-0.25268
-0.25964
-0.25227
-0.23776
-0.21769
-0.20254
-0.19106
-0.20513
-0.21571
-0.21895
-0.22464
-0.20861
-0.20554
-0.18642
-0.17965
-0.18216
-0.17858
-0.17294
-0.17067
-0.15401
-0.15931
-0.14705
-0.14324
-0.15005
-0.14346
-0.14730
-0.14660
-0.15333
-0.14935
-0.14097
-0.13091
-0.11565
-0.11356
-0.10242
-0.10204
-0.11330
-0.13211
-0.13772
-0.11979
-0.11403
-0.11271
-0.12200
-0.13873
-0.13007
-0.14041
-0.14882
-0.16038
-0.15259
-0.14528
-0.14245
-0.14812
-0.15828
-0.16743
-0.16649
-0.14971
-0.14139
-0.13230
-0.13347
-0.13447
-0.14046
-0.15059
-0.15788
-0.15924
-0.14918
-0.13318
-0.11984
-0.11717
-0.14216
-0.15448
-0.14692
-0.14104
-0.12280
-0.11276
-0.12628
-0.14501
-0.14543
-0.14727
-0.14026
-0.13408
-0.11192
-0.10995
-0.11653
-0.12302
-0.12279
-0.11984
-0.10027
-0.07321
-0.04459
-0.01960
-0.00699
-0.00890
-0.00070
-0.00597
-0.00766
-0.01147
-0.00202
0.02120
0.02849
0.01568
-0.04009
-0.10268
-0.12796
-0.14538
-0.15814
-0.15896
-0.18848
-0.20263
-0.21323
-0.23155
-0.24577
-0.23811
-0.24368
-0.23761
-0.22025
-0.22058
-0.21744
-0.24855
-0.25492
-0.23913
-0.18000
-0.04171
0.17029
0.48604
0.88375
1.24184
1.49249
1.55512
1.35672
0.95592
0.47533
0.08560
-0.15035
-0.24242
-0.24445
-0.22252
-0.21803
-0.23521
-0.26270
-0.28315
-0.30426
-0.32273
-0.32896
-0.31730
-0.31849
-0.31576
-0.32456
-0.33397
-0.33199
-0.33252
-0.33975
-0.34465
-0.33461
-0.33022
-0.32459
-0.31622
-0.31291
-0.31143
-0.31709
-0.33277
-0.32342
-0.31444
-0.30247
-0.31919
-0.31185
-0.28947
-0.28370
-0.30791
-0.32415
-0.33440
-0.31115
-0.30260
-0.26954
-0.24872
-0.25011
-0.25792
-0.27486
-0.28650
-0.27761
-0.26667
-0.24638
-0.22850
-0.20438
-0.20974
-0.22595
-0.23206
-0.22090
-0.22859
-0.24576
-0.24083
-0.24559
-0.21802
-0.19829
-0.18895
-0.19155
-0.19432
-0.19877
-0.18745
-0.17611
-0.17719
-0.17120
-0.18679
-0.20020
-0.19519
-0.18157
-0.17683
-0.18301
-0.20583
-0.20717
-0.23095
-0.22369
-0.22370
-0.21555
-0.20196
-0.19552
-0.19540
-0.20398
-0.21334
-0.22053
-0.22827
-0.21859
-0.20998
-0.19995
-0.19038
-0.20062
-0.20141
-0.21150
-0.21824
-0.21131
-0.20230
-0.18239
-0.17690
-0.17845
-0.18935
-0.19397
-0.20055
-0.21693
-0.19375
-0.18028
-0.17098
-0.16182
-0.17271
-0.19191
-0.21490
-0.23400
-0.21915
-0.20072
-0.17975
-0.16367
-0.15589
-0.14521
-0.14515
-0.14002
-0.13207
-0.13204
-0.10991
-0.08312
-0.04914
-0.02108
-0.01580
-0.02533
-0.05149
-0.05353
-0.06394
-0.05536
-0.05609
-0.07343
-0.10098
-0.13258
-0.15275
-0.18421
-0.22887
-0.24069
-0.24424
-0.26056
-0.25992
-0.27159
-0.27726
-0.28599
-0.28425
-0.28664
-0.27628
-0.25625
-0.26208
-0.28002
-0.32322
-0.34091
-0.32184
-0.24003
-0.08395
0.13503
0.44438
0.81010
1.17484
1.43763
1.47303
1.25209
0.88713
0.44016
0.05599
-0.19448
-0.31940
-0.35182
-0.31134
-0.27565
-0.27309
-0.29939
-0.34212
-0.37738
-0.38748
-0.39804
-0.40133
-0.38779
-0.40199
-0.41312
-0.40236
-0.39130
-0.39203
-0.39712
-0.39985
-0.39997
-0.39094
-0.37970
-0.38792
-0.38367
-0.37785
-0.37466
-0.38898
-0.39655
-0.38949
-0.37533
-0.35398
-0.35399
-0.34660
-0.35050
-0.35886
-0.34307
-0.34437
-0.34739
-0.35374
-0.35047
-0.34637
-0.33561
-0.32393
-0.32747
-0.32103
-0.30635
-0.28570
-0.28316
-0.28265
-0.29060
-0.29167
-0.29793
-0.29478
-0.28490
-0.27025
-0.26230
-0.27764
-0.27793
-0.28545
-0.29834
-0.28642
-0.25291
-0.23155
-0.21680
-0.21145
-0.21801
-0.21696
-0.22910
-0.25676
-0.25239
-0.24361
-0.22262
-0.21282
-0.21828
-0.23504
-0.25391
-0.27874
-0.28321
-0.27359
-0.26354
-0.23933
-0.23667
-0.24630
-0.26285
-0.28212
-0.28055
-0.27252
-0.26765
-0.24983
-0.24712
-0.23672
-0.22888
-0.23648
-0.25037
-0.26519
-0.26870
-0.25673
-0.23889
-0.21500
-0.21916
-0.23350
-0.24585
-0.25612
-0.25446
-0.25559
-0.24809
-0.23185
-0.24964
-0.24927
-0.25012
-0.24330
-0.22970
-0.20847
-0.18338
-0.16696
-0.15948
-0.16045
-0.15356
-0.12891
-0.09577
-0.05987
-0.06679
-0.08864
-0.09787
-0.10205
-0.09707
-0.10869
-0.13032
-0.16793
-0.19843
-0.21472
-0.23009
-0.24837
-0.28808
-0.31529
-0.31688
-0.32383
-0.33585
-0.32579
-0.31342
-0.30052
-0.30125
-0.32382
-0.33263
-0.35552
-0.36258
-0.36962
-0.34772
-0.27049
-0.15141
0.05249
0.35546
0.70978
1.07133
1.34113
1.36958
1.14560
0.74493
0.28073
-0.10143
-0.32053
-0.39386
-0.35968
-0.29431
-0.27319
-0.31899
-0.38151
-0.42766
-0.42674
-0.42996
-0.42620
-0.41445
-0.39668
-0.38879
-0.39616
-0.40761
-0.42050
-0.41660
-0.40957
-0.40768
-0.40823
-0.39155
-0.39026
-0.39144
-0.39389
-0.40756
-0.40839
-0.42205
-0.40468
-0.39239
-0.37638
-0.37232
-0.38046
-0.37631
-0.37366
-0.34418
-0.34470
-0.35506
-0.36941
-0.37182
-0.37012
-0.35748
-0.33735
-0.32332
-0.30609
-0.29256
-0.29945
-0.31863
-0.33775
-0.34460
-0.31777
-0.29971
-0.28750
-0.26774
-0.27712
-0.26765
-0.28224
-0.29512
-0.30158
-0.29379
-0.29030
-0.26301
-0.23761
-0.21428
-0.21360
-0.22112
-0.22577
-0.23399
-0.23830
-0.23494
-0.23290
-0.22912
-0.22182
-0.22710
-0.24575
-0.26277
-0.25524
-0.26440
-0.25237
-0.24323
-0.24581
-0.24909
-0.26567
-0.26794
-0.26000
-0.25205
-0.25944
-0.25284
-0.25260
-0.24197
-0.24428
-0.24252
-0.25818
-0.27506
-0.27246
-0.25887
-0.24816
-0.23832
-0.24924
-0.25998
-0.26243
-0.25751
-0.24008
-0.23538
-0.23736
-0.24613
-0.24040
-0.24951
-0.26307
-0.25462
-0.25789
-0.25022
-0.23758
-0.22153
-0.22605
-0.21616
-0.20803
-0.20295
-0.19143
-0.16175
-0.11974
-0.08828
-0.07420
-0.09364
-0.11664
-0.12524
-0.11388
-0.11105
-0.11089
-0.13393
-0.19591
-0.23680
-0.27300
-0.29698
-0.29992
-0.29428
-0.30162
-0.29924
-0.32243
-0.32933
-0.33816
-0.34877
-0.34666
-0.34552
-0.32260
-0.32237
-0.33920
-0.36814
-0.36403
-0.30050
-0.16202
0.07884
0.43576
0.86926
1.24582
1.43109
1.31704
0.94869
0.42410
-0.04652
-0.33134
-0.42449
-0.38401
-0.33148
-0.30455
-0.32515
-0.36844
-0.40749
-0.41783
-0.42395
-0.41135
-0.39993
-0.39730
-0.40859
-0.42183
-0.42963
-0.43061
-0.42181
-0.40662
-0.40834
-0.38859
-0.39028
-0.41488
-0.41440
-0.41933
-0.40183
-0.37886
-0.36543
-0.36438
-0.36164
-0.36537
-0.37006
-0.38479
-0.37864
-0.37266
-0.36473
-0.34640
-0.34630
-0.34660
-0.33987
-0.33915
-0.33511
-0.32397
-0.30943
-0.30538
-0.30214
-0.29142
-0.28877
-0.29573
-0.28905
-0.28121
-0.28081
-0.28438
-0.28877
-0.29998
-0.29998
-0.30789
-0.29328
-0.27317
-0.25914
-0.23983
-0.22616
-0.21603
-0.22944
-0.22708
-0.22554
-0.22852
-0.21644
-0.20819
-0.21558
-0.20392
-0.20564
-0.23323
-0.25498
-0.27686
-0.26857
-0.24401
-0.23125
-0.23490
-0.25058
-0.23825
-0.25423
-0.25491
-0.25532
-0.24328
-0.21843
-0.22643
-0.23434
-0.24024
-0.25585
-0.25629
-0.24561
-0.23306
-0.23399
-0.23224
-0.24146
-0.23637
-0.24406
-0.25623
-0.26011
-0.25432
-0.25190
-0.22817
-0.22532
-0.23847
-0.24813
-0.24737
-0.25813
-0.25649
-0.25334
-0.23917
-0.22558
-0.22222
-0.22168
-0.20310
-0.19598
-0.18933
-0.16106
-0.13666
-0.13567
-0.11365
-0.08821
-0.07550
-0.07626
-0.09459
-0.09670
-0.08975
-0.09377
-0.12238
-0.15277
-0.18587
-0.21748
-0.24277
-0.25782
-0.26894
-0.27860
-0.29039
-0.30593
-0.30447
-0.30245
-0.31718
-0.32855
-0.33443
-0.32241
-0.32209
-0.32990
-0.35389
-0.36038
-0.33867
-0.22925
-0.03313
0.23209
0.57210
0.96549
1.28576
1.41122
1.26133
0.86721
0.38663
-0.03274
-0.29477
-0.39422
-0.37089
-0.33832
-0.31636
-0.33599
-0.35807
-0.38434
-0.39299
-0.38634
-0.38568
-0.39181
-0.40906
-0.41064
-0.40902
-0.40251
-0.38327
-0.38177
-0.38149
-0.38836
-0.39732
-0.40892
-0.39856
-0.38802
-0.36739
-0.36445
-0.36078
-0.37234
-0.38942
-0.39256
-0.39862
-0.37049
-0.36271
-0.35812
-0.35317
-0.35208
-0.35197
-0.35495
-0.34006
-0.33864
-0.33912
-0.32599
-0.31997
-0.31691
-0.30389
-0.31105
-0.30462
-0.31838
-0.30863
-0.30081
-0.28392
-0.28183
-0.26771
-0.27957
-0.28417
-0.27312
-0.28083
-0.28809
-0.28727
-0.26653
-0.23051
-0.20999
-0.21378
-0.23066
-0.22361
-0.22965
-0.21031
-0.19863
-0.20016
-0.20576
-0.20036
-0.21809
-0.24192
-0.24000
-0.23599
-0.22980
-0.23850
-0.23722
-0.23206
-0.24012
-0.23881
-0.22873
-0.22830
-0.22472
-0.22868
-0.23071
-0.24197
-0.25534
-0.27090
-0.25619
-0.24063
-0.24510
-0.23062
-0.23426
-0.23983
-0.23787
-0.24554
-0.24925
-0.25042
-0.22941
-0.21214
-0.21898
-0.21854
-0.21281
-0.22642
-0.23363
-0.24103
-0.24033
-0.24248
-0.22677
-0.22949
-0.23288
-0.23218
-0.23314
-0.22746
-0.20913
-0.16427
-0.15618
-0.14052
-0.12657
-0.13630
-0.14274
-0.12570
-0.09515
-0.05378
-0.05262
-0.06105
-0.05048
-0.07250
-0.08696
-0.12488
-0.14612
-0.17786
-0.20511
-0.22835
-0.23831
-0.25024
-0.25100
-0.27638
-0.29675
-0.29796
-0.30670
-0.28623
-0.28934
-0.29486
-0.31200
-0.32787
-0.32108
-0.32948
-0.32130
-0.31748
-0.29708
-0.25629
-0.14144
0.06496
0.35743
0.72840
1.11729
1.41395
1.45004
1.21142
0.75064
0.26168
-0.11344
-0.33002
-0.38646
-0.34189
-0.27955
-0.25635
-0.28487
-0.33348
-0.36046
-0.38478
-0.38649
-0.37539
-0.34987
-0.34680
-0.36133
-0.36254
-0.37731
-0.36899
-0.36475
-0.36234
-0.35476
-0.35895
-0.35254
-0.34374
-0.34660
-0.36127
-0.36828
-0.36031
-0.34276
-0.32024
-0.31467
-0.30969
-0.31524
-0.33134
-0.33310
-0.31427
-0.30336
-0.28961
-0.27900
-0.27345
-0.26919
-0.28390
-0.28828
-0.27564
-0.26073
-0.26080
-0.24729
-0.23305
-0.22794
-0.23839
-0.23681
-0.24203
-0.24261
-0.24212
-0.23057
-0.22959
-0.22507
-0.21118
-0.19715
-0.19008
-0.18234
-0.17636
-0.15492
-0.13468
-0.13583
-0.14795
-0.16924
-0.18067
-0.17785
-0.17008
-0.17213
-0.16978
-0.17720
-0.18737
-0.19041
-0.20099
-0.19821
-0.19814
-0.18931
-0.18216
-0.18198
-0.17983
-0.17722
-0.17900
-0.17846
-0.16622
-0.16313
-0.15636
-0.17123
-0.17601
-0.17802
-0.17507
-0.17421
-0.16967
-0.16983
-0.15634
-0.14257
-0.13757
-0.13776
-0.15526
-0.17165
-0.17490
-0.16699
-0.14259
-0.12871
-0.11482
-0.14119
-0.17220
-0.17944
-0.18960
-0.16848
-0.12084
-0.08935
-0.07476
-0.07843
-0.06506
-0.05943
-0.04663
-0.01764
0.00827
0.04198
0.05730
0.05643
0.03407
0.00327
-0.01172
-0.03702
-0.05982
-0.09890
-0.11708
-0.11628
-0.14167
-0.16754
-0.19169
-0.19346
-0.21604
-0.21198
-0.19511
-0.19746
-0.18871
-0.20074
-0.21085
-0.22504
-0.22575
-0.22526
-0.23488
-0.23837
-0.21243
-0.13892
-0.00187
0.22198
0.54974
0.93726
1.30555
1.55569
1.56822
1.33771
0.90495
0.43109
0.03992
-0.18889
-0.26144
-0.24966
-0.19084
-0.15818
-0.16786
-0.21166
-0.26343
-0.26997
-0.25075
-0.22702
-0.22536
-0.23610
-0.25581
-0.26507
-0.26553
-0.25981
-0.25387
-0.24004
-0.23242
-0.23066
-0.20848
-0.21543
-0.23278
-0.23336
-0.23592
-0.22720
-0.19314
-0.19268
-0.20644
-0.23798
-0.23934
-0.24386
-0.23739
-0.21082
-0.20616
-0.18487
-0.18777
-0.18422
-0.17334
-0.16989
-0.17030
-0.16680
-0.14716
-0.14385
-0.13223
-0.11508
-0.11493
-0.12433
-0.13160
-0.12379
-0.10672
-0.08758
-0.09306
-0.11410
-0.12760
-0.12517
-0.12075
-0.11850
-0.09563
-0.07765
-0.06648
-0.06792
-0.06292
-0.05071
-0.04423
-0.03655
-0.01940
-0.00764
-0.00284
-0.01573
-0.02722
-0.04206
-0.05326
-0.06077
-0.05508
-0.06539
-0.06216
-0.04107
-0.06076
-0.04999
-0.06164
-0.06554
-0.06209
-0.03875
-0.01653
-0.01231
-0.01961
-0.03204
-0.04134
-0.05588
-0.06151
-0.05430
-0.03668
-0.01103
-0.00557
0.00174
-0.01729
-0.03442
-0.05006
-0.03593
-0.01715
-0.01113
-0.01075
-0.01895
-0.01010
-0.00317
-0.02043
-0.03063
-0.02673
-0.01345
-0.00739
-0.01446
0.00581
0.00715
0.00815
0.01265
0.00916
0.03895
0.05574
0.06830
0.07337
0.09074
0.10684
0.12804
0.13079
0.12926
0.13717
0.13616
0.13411
0.12653
0.10860
0.05569
0.01659
-0.01099
-0.02407
-0.05066
-0.06975
-0.08191
-0.08186
-0.07450
-0.07976
-0.08727
-0.09814
-0.11221
-0.10474
-0.11542
-0.12040
-0.12037
-0.14109
-0.14495
-0.13920
-0.10407
0.00969
0.18122
0.41790
0.72507
1.08135
1.43209
1.69113
1.74421
1.51908
1.09319
0.58140
0.17219
-0.07002
-0.18390
-0.18059
-0.13792
-0.09844
-0.10498
-0.12393
-0.16328
-0.19826
-0.23017
-0.24002
-0.22386
-0.21957
-0.21636
-0.21637
-0.21762
-0.22737
-0.22401
-0.22521
-0.21266
-0.20673
-0.22112
-0.21667
-0.20864
-0.20822
-0.21500
-0.21944
-0.21994
-0.20853
-0.19670
-0.18935
-0.18189
-0.17200
-0.19644
-0.20297
-0.20667
-0.20377
-0.17743
-0.17268
-0.17916
-0.17523
-0.17323
-0.17435
-0.16867
-0.14795
-0.13211
-0.12933
-0.13349
-0.15296
-0.16766
-0.15424
-0.14494
-0.13598
-0.12126
-0.10615
-0.09895
-0.10189
-0.11727
-0.13216
-0.13145
-0.12296
-0.10996
-0.09019
-0.08314
-0.09737
-0.09434
-0.08874
-0.08949
-0.07935
-0.06761
-0.06384
-0.05364
-0.05914
-0.07610
-0.07026
-0.09646
-0.11528
-0.11809
-0.11725
-0.10540
-0.09422
-0.08278
-0.09719
-0.09877
-0.10860
-0.11086
-0.12231
-0.12522
-0.10199
-0.10459
-0.11661
-0.13495
-0.13383
-0.11132
-0.09842
-0.08067
-0.08981
-0.09538
-0.10653
-0.11257
-0.12108
-0.11815
-0.10863
-0.09534
-0.08089
-0.08666
-0.09302
-0.10139
-0.09738
-0.09163
-0.08764
-0.10782
-0.11025
-0.11488
-0.09918
-0.09141
-0.10005
-0.07852
-0.07895
-0.06065
-0.04422
-0.01675
-0.00221
-0.01222
-0.00558
0.01781
0.06021
0.08091
0.06433
0.06390
0.05167
0.02596
-0.00807
-0.03498
-0.06468
-0.10050
-0.10255
-0.10551
-0.11976
-0.16545
-0.17987
-0.20737
-0.22064
-0.21223
-0.20513
-0.18155
-0.18797
-0.20893
-0.22929
-0.24242
-0.25375
-0.22910
-0.14165
0.01649
0.27171
0.60502
1.01280
1.40260
1.64053
1.60208
1.29383
0.81159
0.31179
-0.05667
-0.25341
-0.28493
-0.25480
-0.22316
-0.22635
-0.24853
-0.27610
-0.30072
-0.32925
-0.33274
-0.32070
-0.33949
-0.34423
-0.32824
-0.33153
-0.32127
-0.32782
-0.33190
-0.31536
-0.31508
-0.31675
-0.32940
-0.34349
-0.33487
-0.31930
-0.30591
-0.31412
-0.31739
-0.32992
-0.32590
-0.31421
-0.30210
-0.28959
-0.30358
-0.30750
-0.30105
-0.31446
-0.30556
-0.29198
-0.28065
-0.27149
-0.26145
-0.26096
-0.25204
-0.25643
-0.25178
-0.23033
-0.21481
-0.20836
-0.20806
-0.23036
-0.22653
-0.23917
-0.23145
-0.21925
-0.21835
-0.21928
-0.20776
-0.20768
-0.20517
-0.19979
-0.20110
-0.19334
-0.18599
-0.17812
-0.16629
-0.18315
-0.17734
-0.18920
-0.21151
-0.22764
-0.21707
-0.20080
-0.18848
-0.17464
-0.18530
-0.20779
-0.22269
-0.22764
-0.22867
-0.21399
-0.19755
-0.20522
-0.21413
-0.21812
-0.22133
-0.22716
-0.23294
-0.24410
-0.22716
-0.19426
-0.19706
-0.19801
-0.19514
-0.22723
-0.25046
-0.25763
-0.23618
-0.20529
-0.19454
-0.18544
-0.19099
-0.19730
-0.20696
-0.21467
-0.22024
-0.22062
-0.19829
-0.20343
-0.21161
-0.22020
-0.22033
-0.21161
-0.20868
-0.18914
-0.17079
-0.15783
-0.13337
-0.13048
-0.13124
-0.10924
-0.09884
-0.07242
-0.04645
-0.06497
-0.07095
-0.06549
-0.06936
-0.06446
-0.07932
-0.10371
-0.13485
-0.15885
-0.17985
-0.20267
-0.22663
-0.25429
-0.27094
-0.27990
-0.28786
-0.28809
-0.27464
-0.28883
-0.32064
-0.33615
-0.34085
-0.33048
-0.33095
-0.33329
-0.33064
-0.29179
-0.19209
0.00057
0.29764
0.68209
1.08470
1.43138
1.54343
1.31896
0.86888
0.35841
-0.06285
-0.30050
-0.37879
-0.34722
-0.31017
-0.29254
-0.31321
-0.36040
-0.40582
-0.42281
-0.40967
-0.39130
-0.37887
-0.38084
-0.40127
-0.40722
-0.41919
-0.42276
-0.42318
-0.40490
-0.40800
-0.39805
-0.39742
-0.38266
-0.39303
-0.38830
-0.39833
-0.40479
-0.41049
-0.39544
-0.38889
-0.37209
-0.36481
-0.38340
-0.38535
-0.38150
-0.37367
-0.35004
-0.34481
-0.34089
-0.33956
-0.35519
-0.35346
-0.35029
-0.34643
-0.34084
-0.31085
-0.29168
-0.29573
-0.29931
-0.32590
-0.32719
-0.30606
-0.29815
-0.29021
-0.28142
-0.29571
-0.28290
-0.29181
-0.29082
-0.29109
-0.26659
-0.25020
-0.23032
-0.22477
-0.23995
-0.24432
-0.25533
-0.26172
-0.25881
-0.25009
-0.25638
-0.24316
-0.23722
-0.25202
-0.27337
-0.28257
-0.26617
-0.26701
-0.25765
-0.26235
-0.27726
-0.27189
-0.28745
-0.28126
-0.28662
-0.27355
-0.25986
-0.26612
-0.26083
-0.27109
-0.27241
-0.26682
-0.27385
-0.26795
-0.25818
-0.23740
-0.24128
-0.24719
-0.26484
-0.28746
-0.28935
-0.26744
-0.25880
-0.24598
-0.22428
-0.23587
-0.24782
-0.26911
-0.27637
-0.26271
-0.23903
-0.20227
-0.17697
-0.19036
-0.19328
-0.19921
-0.18984
-0.17481
-0.12980
-0.08709
-0.07820
-0.07337
-0.08269
-0.09943
-0.13520
-0.14590
-0.16483
-0.17800
-0.18938
-0.21200
-0.23196
-0.25851
-0.30139
-0.32606
-0.32678
-0.32051
-0.31933
-0.31216
-0.32271
-0.32525
-0.35689
-0.35424
-0.36433
-0.37128
-0.37158
-0.38345
-0.37728
-0.32118
-0.21475
-0.01026
0.29287
0.67754
1.07828
1.38391
1.49399
1.31199
0.92718
0.45433
0.02955
-0.24078
-0.36381
-0.37720
-0.35134
-0.32934
-0.33128
-0.36219
-0.41598
-0.43870
-0.44142
-0.43432
-0.42357
-0.42963
-0.42578
-0.44258
-0.43203
-0.44183
-0.43991
-0.42750
-0.42330
-0.41430
-0.40757
-0.40959
-0.43221
-0.43621
-0.42960
-0.40910
-0.39051
-0.37427
-0.38164
-0.41495
-0.42298
-0.42195
-0.40535
-0.37852
-0.37030
-0.36171
-0.34641
-0.35512
-0.35588
-0.37995
-0.37727
-0.35033
-0.34586
-0.31566
-0.30357
-0.29714
-0.29799
-0.31393
-0.32219
-0.30951
-0.30704
-0.28582
-0.28035
-0.28323
-0.28751
-0.28425
-0.29160
-0.28822
-0.28146
-0.27298
-0.25894
-0.25068
-0.23494
-0.23681
-0.23753
-0.24465
-0.23705
-0.23534
-0.22583
-0.22289
-0.23402
-0.23135
-0.25071
-0.25309
-0.24829
-0.23717
-0.22310
-0.22664
-0.24746
-0.27345
-0.29275
-0.28802
-0.29251
-0.26935
-0.25619
-0.23885
-0.24590
-0.26264
-0.26560
-0.26418
-0.27398
-0.26414
-0.23962
-0.23414
-0.22094
-0.22289
-0.22475
-0.23827
-0.25146
-0.24371
-0.22825
-0.21964
-0.21930
-0.23503
-0.23430
-0.23976
-0.25233
-0.24163
-0.23873
-0.23554
-0.22195
-0.22334
-0.22169
-0.22479
-0.23202
-0.21487
-0.19733
-0.18977
-0.16808
-0.16135
-0.14900
-0.14192
-0.12505
-0.09899
-0.07574
-0.06269
-0.07673
-0.06895
-0.08013
-0.08546
-0.10320
-0.12325
-0.12631
-0.15557
-0.18351
-0.21330
-0.22603
-0.24064
-0.26168
-0.28116
-0.29883
-0.30723
-0.30833
-0.29374
-0.29475
-0.27822
-0.28825
-0.31021
-0.32149
-0.32852
-0.35233
-0.35138
-0.35131
-0.32051
-0.22207
-0.07561
0.15476
0.46255
0.82656
1.19499
1.45308
1.48508
1.28523
0.90070
0.44587
0.04186
-0.22612
-0.37312
-0.37612
-0.33773
-0.29213
-0.29218
-0.33031
-0.36988
-0.39108
-0.39225
-0.37551
-0.37268
-0.38705
-0.40150
-0.40650
-0.41155
-0.41648
-0.40056
-0.37970
-0.37629
-0.36926
-0.38274
-0.39892
-0.40165
-0.40517
-0.39196
-0.38605
-0.37748
-0.35620
-0.36222
-0.37120
-0.37834
-0.38955
-0.37769
-0.37182
-0.35700
-0.32949
-0.32988
-0.32736
-0.33614
-0.34640
-0.35463
-0.33596
-0.32473
-0.31921
-0.30343
-0.29002
-0.31455
-0.31833
-0.31727
-0.30530
-0.28337
-0.28509
-0.28595
-0.27238
-0.27163
-0.26822
-0.27874
-0.27418
-0.28143
-0.26989
-0.26504
-0.26317
-0.26431
-0.25765
-0.25842
-0.23062
-0.20780
-0.20637
-0.21038
-0.21667
-0.21694
-0.20737
-0.21559
-0.21940
-0.22570
-0.23053
-0.22175
-0.21283
-0.21534
-0.23540
-0.24502
-0.24530
-0.24381
-0.23339
-0.22521
-0.23333
-0.24079
-0.24486
-0.24222
-0.24799
-0.25076
-0.25214
-0.23265
-0.23347
-0.25148
-0.25575
-0.24944
-0.25338
-0.25666
-0.23937
-0.23338
-0.22098
-0.22978
-0.23294
-0.23454
-0.23611
-0.24035
-0.23629
-0.23142
-0.22232
-0.22478
-0.22689
-0.23600
-0.24683
-0.23895
-0.22542
-0.21730
-0.19733
-0.18131
-0.18130
-0.18563
-0.17971
-0.17002
-0.14670
-0.11769
-0.07286
-0.04707
-0.04756
-0.05982
-0.09440
-0.10463
-0.10736
-0.11141
-0.13810
-0.15960
-0.17757
-0.19178
-0.21964
-0.26084
-0.29199
-0.32032
-0.31328
-0.28814
-0.27826
-0.27843
-0.28668
-0.30889
-0.30394
-0.31203
-0.31240
-0.31611
-0.32757
-0.31639
-0.26946
-0.13747
0.06282
0.36357
0.75939
1.18206
1.48066
1.53677
1.28796
0.82332
0.30713
-0.08895
-0.30628
-0.36254
-0.33264
-0.29112
-0.27524
-0.28977
-0.33384
-0.37107
-0.37999
-0.38002
-0.37732
-0.36271
-0.34519
-0.35377
-0.34923
-0.36772
-0.37298
-0.38215
-0.37415
-0.36150
-0.35968
-0.34432
-0.33950
-0.33934
-0.34694
-0.35092
-0.34694
-0.34618
-0.33600
-0.32165
-0.31532
-0.32961
-0.33507
-0.34380
-0.32826
-0.33078
-0.29668
-0.28158
-0.28082
-0.28055
-0.28981
-0.29316
-0.28588
-0.26583
-0.25349
-0.25089
-0.25496
-0.24855
-0.24847
-0.23902
-0.23157
-0.21742
-0.20742
-0.20979
-0.21861
-0.23499
-0.22518
-0.22750
-0.22614
-0.18904
-0.15773
-0.15270
-0.15510
-0.17004
-0.16665
-0.16230
-0.17895
-0.17902
-0.16668
-0.15079
-0.14620
-0.15596
-0.16931
-0.18263
-0.20005
-0.20100
-0.19375
-0.19323
-0.17293
-0.17368
-0.16613
-0.16627
-0.18053
-0.19959
-0.21947
-0.21091
-0.18095
-0.17088
-0.15549
-0.16704
-0.18197
-0.18515
-0.19031
-0.17710
-0.17479
-0.17461
-0.15986
-0.15279
-0.14968
-0.15541
-0.16979
-0.18083
-0.17476
-0.15637
-0.15092
-0.17175
-0.17695
-0.17477
-0.17755
-0.18045
-0.17135
-0.15456
-0.14924
-0.12646
-0.12197
-0.12788
-0.13352
-0.11998
-0.09183
-0.06947
-0.04331
-0.02159
0.00424
0.01609
0.00620
-0.00530
-0.00994
0.00835
0.00636
-0.01416
-0.05911
-0.09659
-0.12278
-0.15616
-0.16480
-0.16562
-0.15696
-0.16478
-0.19916
-0.23228
-0.26972
-0.26470
-0.25261
-0.23447
-0.22006
-0.21288
-0.20641
-0.22463
-0.24274
-0.27717
-0.28328
-0.21802
-0.07853
0.16162
0.49018
0.86667
1.23616
1.50729
1.54687
1.30084
0.88284
0.41035
0.01745
-0.22956
-0.32662
-0.29449
-0.24330
-0.21785
-0.21905
-0.25334
-0.25550
-0.25520
-0.26058
-0.27010
-0.29113
-0.30943
-0.33471
-0.32134
-0.30261
-0.29395
-0.28812
-0.27653
-0.27988
-0.28149
-0.29154
-0.30128
-0.29817
-0.27995
-0.27804
-0.26837
-0.27612
-0.27851
-0.27576
-0.27438
-0.26198
-0.23705
-0.24483
-0.23472
-0.23616
-0.23198
-0.23110
-0.23412
-0.23538
-0.22890
-0.20918
-0.20437
-0.19575
-0.18441
-0.18083
-0.17209
-0.17522
-0.16286
-0.15925
-0.14650
-0.15350
-0.16346
-0.16836
-0.16846
-0.14447
-0.12735
-0.12112
-0.13025
-0.13649
-0.12149
-0.10223
-0.09747
-0.07854
-0.06315
-0.04157
-0.03886
-0.05656
-0.07407
-0.10400
-0.12056
-0.11493
-0.10698
-0.08396
-0.06483
-0.07370
-0.09011
-0.11993
-0.12174
-0.10023
-0.09568
-0.09008
-0.08104
-0.07066
-0.06732
-0.07811
-0.10159
-0.10654
-0.09331
-0.07872
-0.06293
-0.06618
-0.06183
-0.08134
-0.09336
-0.09916
-0.10104
-0.08520
-0.05613
-0.04378
-0.04090
-0.05154
-0.07662
-0.08663
-0.08492
-0.07379
-0.06569
-0.04639
-0.03904
-0.04382
-0.04598
-0.02288
-0.00844
-0.00126
-0.00024
0.01067
0.02027
0.04433
0.07330
0.07836
0.08357
0.08868
0.08483
0.08421
0.08693
0.07499
0.04420
0.01105
-0.01476
-0.03253
-0.04083
-0.05065
-0.07264
-0.10017
-0.12037
-0.13090
-0.12840
-0.11781
-0.10386
-0.11073
-0.12615
-0.14579
-0.15433
-0.15640
-0.16543
-0.17670
-0.15835
-0.07315
0.09966
0.36045
0.72985
1.14099
1.49155
1.69481
1.62746
1.29727
0.79481
0.31835
-0.01428
-0.17768
-0.22435
-0.20239
-0.15713
-0.13569
-0.14423
-0.15811
-0.17889
-0.18977
-0.20750
-0.22238
-0.21864
-0.21568
-0.20843
-0.22201
-0.20617
-0.20367
-0.18966
-0.18632
-0.21472
-0.23086
-0.23361
-0.20285
-0.17012
-0.16388
-0.16409
-0.17780
-0.19983
-0.21705
-0.20965
-0.18159
-0.14824
-0.13898
-0.14377
-0.13920
-0.13871
-0.15280
-0.15764
-0.15399
-0.13012
-0.11469
-0.10590
-0.10239
-0.11882
-0.11920
-0.10278
-0.07950
-0.06810
-0.06832
-0.07653
-0.07851
-0.09700
-0.08395
-0.07475
-0.06174
-0.06632
-0.07391
-0.06458
-0.05355
-0.04364
-0.03800
-0.02811
-0.01294
0.00169
0.01192
0.00742
-0.00370
0.00041
-0.01197
-0.01460
-0.01825
-0.00047
0.00067
0.00480
-0.00192
-0.02038
-0.03764
-0.05188
-0.04565
-0.02992
-0.02720
-0.03278
-0.02470
-0.01292
-0.02009
-0.02437
-0.02162
-0.01767
-0.00744
-0.00380
-0.00626
-0.00294
-0.01462
-0.01583
-0.00918
-0.00197
0.02155
0.01817
0.01750
-0.00075
-0.00625
-0.01573
-0.01234
0.01029
0.03035
0.04012
0.04276
0.03487
0.00855
-0.00355
-0.00182
0.01171
0.02934
0.05554
0.07284
0.09220
0.10417
0.10409
0.10115
0.11015
0.13405
0.16569
0.18270
0.18773
0.18492
0.17464
0.15414
0.11879
0.09656
0.07480
0.05592
0.04867
0.03384
0.01713
-0.02698
-0.06297
-0.08597
-0.08402
-0.09109
-0.05978
-0.07004
-0.06298
-0.07456
-0.09429
-0.08195
-0.08504
-0.07335
-0.08321
-0.11009
-0.07815
0.02134
0.21454
0.47355
0.79139
1.14519
1.50036
1.74395
1.75211
1.47181
1.02668
0.54483
0.18066
-0.02638
-0.10329
-0.08317
-0.04331
-0.03761
-0.05153
-0.09436
-0.13875
-0.17716
-0.17884
-0.17059
-0.13928
-0.13530
-0.15053
-0.15399
-0.18079
-0.19898
-0.19178
-0.16787
-0.13931
-0.13881
-0.14301
-0.15181
-0.16305
-0.17721
-0.17411
-0.15759
-0.13421
-0.12060
-0.12470
-0.12522
-0.12926
-0.14093
-0.13871
-0.14494
-0.13814
-0.11442
-0.10098
-0.09519
-0.10652
-0.10646
-0.11282
-0.11107
-0.10246
-0.07942
-0.08096
-0.08009
-0.07760
-0.08173
-0.07321
-0.05903
-0.05467
-0.05104
-0.07129
-0.05984
-0.04892
-0.03920
-0.03509
-0.04024
-0.05322
-0.04450
-0.01916
-0.00818
-0.00386
-0.00784
-0.00748
-0.00569
-0.00658
0.01095
0.02031
0.01509
-0.00857
-0.03197
-0.04076
-0.03983
-0.03747
-0.01245
0.00063
0.00216
-0.01895
-0.04366
-0.06736
-0.05907
-0.04716
-0.03308
-0.02058
-0.01322
-0.03040
-0.03646
-0.04564
-0.05052
-0.04389
-0.04271
-0.03297
-0.01020
-0.01671
-0.00964
-0.02908
-0.04330
-0.04420
-0.02879
0.00077
0.01594
0.01656
0.00558
-0.00817
-0.02094
-0.02220
-0.03167
-0.03602
-0.03466
-0.01499
0.01149
0.03205
0.03867
0.03261
0.03371
0.05484
0.09253
0.11770
0.13278
0.15698
0.14854
0.12942
0.10777
0.12977
0.13738
0.11642
0.10190
0.07896
0.03183
-0.00454
-0.03972
-0.06811
-0.07241
-0.07207
-0.06988
-0.08514
-0.09905
-0.11181
-0.12005
-0.11772
-0.09207
-0.10181
-0.11376
-0.12262
-0.12919
-0.10538
-0.00329
0.15150
0.40902
0.78217
1.19970
1.57355
1.78517
1.71240
1.33332
0.81665
0.32865
-0.00348
-0.14551
-0.14116
-0.09553
-0.08564
-0.10978
-0.14694
-0.18125
-0.20535
-0.19825
-0.19620
-0.20340
-0.21990
-0.22492
-0.23159
-0.22385
-0.21470
-0.20897
-0.20539
-0.19973
-0.20442
-0.21018
-0.22180
-0.21435
-0.19819
-0.18451
-0.20158
-0.20114
-0.20646
-0.22305
-0.22727
-0.21799
-0.20569
-0.20916
-0.20233
-0.18340
-0.17132
-0.15388
-0.15993
-0.16496
-0.17808
-0.17537
-0.15961
-0.13721
-0.12507
-0.13635
-0.14202
-0.14521
-0.14848
-0.13382
-0.13366
-0.11028
-0.09742
-0.09920
-0.10222
-0.08999
-0.11077
-0.12185
-0.11235
-0.08263
-0.06210
-0.05599
-0.07284
-0.09351
-0.08380
-0.08777
-0.06490
-0.05472
-0.04511
-0.03950
-0.04598
-0.05108
-0.06889
-0.07227
-0.07955
-0.07250
-0.07302
-0.08254
-0.08230
-0.08826
-0.09346
-0.09870
-0.09493
-0.09474
-0.08840
-0.08338
-0.07750
-0.07955
-0.09085
-0.09271
-0.09353
-0.09412
-0.08466
-0.08712
-0.09042
-0.09398
-0.08833
-0.08069
-0.07850
-0.07724
-0.07764
-0.05297
-0.04491
-0.05199
-0.08310
-0.10448
-0.11355
-0.09529
-0.07304
-0.05585
-0.04729
-0.04685
-0.06372
-0.07697
-0.08484
-0.08387
-0.07242
-0.04030
-0.01210
0.01192
0.02326
0.02371
0.02119
0.02719
0.05736
0.09903
0.12111
0.10631
0.08089
0.06887
0.07101
0.06045
0.04173
-0.00029
-0.03978
-0.05129
-0.07360
-0.09968
-0.11145
-0.12633
-0.14159
-0.15441
-0.15550
-0.15498
-0.15019
-0.16027
-0.17179
-0.17215
-0.16940
-0.17950
-0.19830
-0.21230
-0.17416
-0.06694
0.11096
0.37729
0.71422
1.12038
1.47985
1.67101
1.58769
1.24058
0.75231
0.27123
-0.05346
-0.21500
-0.23347
-0.18655
-0.16788
-0.18635
-0.23206
-0.26639
-0.26975
-0.27837
-0.27414
-0.26799
-0.26474
-0.26423
-0.27422
-0.28766
-0.29136
-0.29132
-0.29283
-0.28264
-0.26801
-0.26265
-0.27123
-0.27951
-0.28531
-0.27916
-0.28649
-0.27667
-0.27391
-0.24812
-0.25600
-0.26440
-0.27566
-0.28956
-0.28221
-0.26811
-0.25350
-0.23551
-0.20963
-0.22410
-0.22089
-0.22322
-0.21635
-0.23401
-0.22730
-0.20969
-0.20218
-0.19218
-0.18622
-0.18855
-0.19421
-0.19212
-0.19725
-0.18272
-0.16396
-0.13738
-0.15673
-0.16789
-0.18259
-0.19197
-0.17465
-0.16859
-0.15747
-0.13884
-0.11895
-0.10943
-0.12398
-0.12442
-0.12768
-0.12971
-0.12520
-0.12105
-0.11066
-0.11883
-0.11664
-0.13104
-0.14711
-0.15691
-0.16345
-0.14382
-0.14708
-0.13975
-0.14848
-0.16169
-0.16563
-0.15666
-0.16139
-0.15320
-0.14834
-0.16727
-0.15498
-0.15437
-0.16117
-0.15059
-0.13499
-0.14548
-0.14813
-0.14498
-0.15054
-0.14921
-0.16603
-0.17364
-0.16333
-0.14454
-0.12486
-0.12228
-0.12976
-0.15296
-0.15985
-0.17749
-0.16603
-0.14177
-0.13018
-0.10797
-0.10755
-0.12809
-0.15529
-0.16111
-0.15631
-0.13908
-0.11641
-0.07934
-0.06349
-0.03902
-0.02658
-0.02583
-0.01665
-0.01092
0.00357
-0.00004
0.00300
0.00298
0.01186
-0.01554
-0.05547
-0.09146
-0.11223
-0.14367
-0.15681
-0.17465
-0.20328
-0.23455
-0.24654
-0.24821
-0.24324
-0.24266
-0.24240
-0.25374
-0.24592
-0.25701
-0.26364
-0.26519
-0.29305
-0.29034
-0.28093
-0.24684
-0.15670
0.02236
0.29369
0.65068
1.05295
1.40850
1.58875
1.46129
1.04774
0.53479
0.09570
-0.18992
-0.31072
-0.31582
-0.25971
-0.22616
-0.24735
-0.28869
-0.33090
-0.35240
-0.36267
-0.36267
-0.35595
-0.33987
-0.32768
-0.34403
-0.34280
-0.33432
-0.33759
-0.35170
-0.36758
-0.36992
-0.35791
-0.34394
-0.32638
-0.33208
-0.34775
-0.36285
-0.35331
-0.33920
-0.32674
-0.32037
-0.31231
-0.30788
-0.30564
-0.31425
-0.31914
-0.32939
-0.31086
-0.28532
-0.27174
-0.26365
-0.28109
-0.29735
-0.29117
-0.26949
-0.26754
-0.26002
-0.24520
-0.23037
-0.22507
-0.24422
-0.25771
-0.26233
-0.25640
-0.23197
-0.21255
-0.20556
-0.22030
-0.23606
-0.22269
-0.19836
-0.17193
-0.16848
-0.17815
-0.19197
-0.18664
-0.18695
-0.18535
-0.19409
-0.19405
-0.20001
-0.19045
-0.19359
-0.17881
-0.18464
-0.20324
-0.20355
-0.20985
-0.20959
-0.21036
-0.19207
-0.18428
-0.18035
-0.18226
-0.19359
-0.19607
-0.19621
-0.20138
-0.19383
-0.19351
-0.20348
-0.19587
-0.19779
-0.19848
-0.19253
-0.18865
-0.18474
-0.16459
-0.17342
-0.17590
-0.18481
-0.20023
-0.20038
-0.18978
-0.17678
-0.16943
-0.17533
-0.17952
-0.18026
-0.17561
-0.15672
-0.12789
-0.11645
-0.10795
-0.10335
-0.09903
-0.09406
-0.09404
-0.06447
-0.02745
-0.00720
-0.00021
-0.00328
-0.00406
-0.01681
-0.04308
-0.07357
-0.11161
-0.14143
-0.16099
-0.17927
-0.18229
-0.19507
-0.23059
-0.25006
-0.25899
-0.27078
-0.27340
-0.26403
-0.25495
-0.24879
-0.26987
-0.28635
-0.29220
-0.29486
-0.30885
-0.31343
-0.25843
-0.15022
0.02398
0.30022
0.69478
1.14934
1.50503
1.61696
1.39712
0.95168
0.40963
-0.05505
-0.30568
-0.39832
-0.35668
-0.28387
-0.24699
-0.24596
-0.29096
-0.33829
-0.36073
-0.37399
-0.36027
-0.35439
-0.34330
-0.36063
-0.36536
-0.37006
-0.36048
-0.34778
-0.35959
-0.36241
-0.34909
-0.35386
-0.35755
-0.34527
-0.34475
-0.35646
-0.34842
-0.33712
-0.32683
-0.33137
-0.32104
-0.32465
-0.33741
-0.33725
-0.33088
-0.31940
-0.30338
-0.29764
-0.29946
-0.29667
-0.28863
-0.29320
-0.29359
-0.28544
-0.27408
-0.24617
-0.24732
-0.24230
-0.23412
-0.23816
-0.25065
-0.24825
-0.23647
-0.22199
-0.20427
-0.20473
-0.22603
-0.23804
-0.23583
-0.22851
-0.20793
-0.19131
-0.17888
-0.16314
-0.12922
-0.12749
-0.13443
-0.14859
-0.17421
-0.16657
-0.15183
-0.13910
-0.14595
-0.16574
-0.17210
-0.17754
-0.17514
-0.16360
-0.15735
-0.14605
-0.16256
-0.16666
-0.18185
-0.18005
-0.17376
-0.16721
-0.14766
-0.13119
-0.12903
-0.13703
-0.15034
-0.15145
-0.16075
-0.15937
-0.15453
-0.15869
-0.15414
-0.14687
-0.13782
-0.13130
-0.14107
-0.14482
-0.14512
-0.13898
-0.14719
-0.15419
-0.13714
-0.14055
-0.14341
-0.14105
-0.12360
-0.10927
-0.08781
-0.07285
-0.06196
-0.04533
-0.04336
-0.05284
-0.02788
0.01499
0.04379
0.05769
0.04553
0.02337
0.01230
-0.00295
-0.01480
-0.01314
-0.03044
-0.06221
-0.09800
-0.12473
-0.15852
-0.18928
-0.18491
-0.17431
-0.17025
-0.18731
-0.20540
-0.21709
-0.21094
-0.22031
-0.21720
-0.22776
-0.23735
-0.25399
-0.21958
-0.11626
0.06829
0.31398
0.66045
1.05182
1.43644
1.65248
1.58097
1.22437
0.70775
0.20248
-0.15170
-0.30330
-0.30141
-0.23325
-0.16218
-0.16081
-0.19127
-0.25025
-0.29324
-0.30389
-0.29897
-0.27670
-0.27102
-0.26456
-0.25975
-0.26268
-0.26897
-0.28967
-0.29723
-0.29756
-0.28430
-0.26782
-0.25016
-0.23185
-0.24485
-0.26888
-0.27358
-0.27762
-0.27659
-0.25075
-0.24511
-0.23945
-0.25716
-0.26181
-0.25206
-0.23862
-0.23140
-0.21285
-0.18495
-0.19738
-0.19618
-0.20322
-0.20821
-0.20761
-0.19996
-0.18447
-0.17799
-0.17520
-0.17370
-0.16007
-0.15927
-0.16266
-0.16759
-0.17774
-0.16494
-0.16342
-0.16404
-0.15980
-0.15886
-0.14597
-0.12285
-0.11191
-0.09480
-0.07467
-0.08899
-0.10511
-0.10803
-0.10505
-0.11687
-0.10607
-0.08646
-0.07573
-0.08022
-0.09548
-0.13749
-0.14970
-0.14542
-0.13157
-0.11001
-0.10409
-0.09031
-0.10300
-0.11760
-0.14081
-0.14477
-0.15168
-0.13690
-0.10456
-0.09031
-0.10125
-0.13604
-0.15234
-0.14370
-0.13299
-0.12276
-0.12096
-0.09268
-0.08902
-0.07913
-0.09027
-0.10401
-0.10111
-0.11339
-0.10704
-0.08843
-0.07850
-0.06909
-0.07080
-0.07322
-0.07815
-0.08694
-0.10968
-0.11395
-0.08818
-0.07496
-0.04752
-0.04077
-0.04318
-0.02362
-0.01869
0.01603
0.05051
0.06645
0.04895
0.03864
0.02959
0.02624
0.03007
0.02008
0.01141
-0.02648
-0.08464
-0.13463
-0.15649
-0.16090
-0.18186
-0.18663
-0.19532
-0.19021
-0.18158
-0.19642
-0.21132
-0.21873
-0.21916
-0.22976
-0.21362
-0.20757
-0.23121
-0.25975
-0.25917
-0.19344
-0.04988
0.18308
0.50659
0.89205
1.28699
1.59674
1.69596
1.51995
1.09574
0.58021
0.13252
-0.14240
-0.23350
-0.24328
-0.22545
-0.21694
-0.23594
-0.26233
-0.29570
-0.31155
-0.32417
-0.32050
-0.30537
-0.31639
-0.33361
-0.34588
-0.34095
-0.33043
-0.31779
-0.31818
-0.32509
-0.33867
-0.35886
-0.36151
-0.33658
-0.31205
-0.30447
-0.31090
-0.32341
-0.34835
-0.33913
-0.33144
-0.32185
-0.30288
-0.29697
-0.29876
-0.29471
-0.31293
-0.31627
-0.31774
-0.31424
-0.29164
-0.26801
-0.25127
-0.25217
-0.23562
-0.23769
-0.26668
-0.28137
-0.27861
-0.27887
-0.24377
-0.22873
-0.22391
-0.22675
-0.22958
-0.23561
-0.24591
-0.24145
-0.24367
-0.23081
-0.21880
-0.21291
-0.21411
-0.21052
-0.19757
-0.20256
-0.19449
-0.17695
-0.17491
-0.16592
-0.16375
-0.17698
-0.19682
-0.19705
-0.20524
-0.20157
-0.19408
-0.19634
-0.19207
-0.19792
-0.20292
-0.19671
-0.20024
-0.18244
-0.17765
-0.18218
-0.19686
-0.20960
-0.23094
-0.23124
-0.21653
-0.21508
-0.19741
-0.19870
-0.19849
-0.19947
-0.20133
-0.22324
-0.22426
-0.22218
-0.21930
-0.20423
-0.18161
-0.17677
-0.18114
-0.19718
-0.19988
-0.19621
-0.19277
-0.18107
-0.16911
-0.15075
-0.16567
-0.19127
-0.22054
-0.22711
-0.22935
-0.19513
-0.17764
-0.17013
-0.16901
-0.16884
-0.15279
-0.15712
-0.14179
-0.12734
-0.10974
-0.09133
-0.06727
-0.02919
-0.00862
-0.02527
-0.04428
-0.06135
-0.05767
-0.06071
-0.06492
-0.08483
-0.11614
-0.14066
-0.17020
-0.17636
-0.18471
-0.20587
-0.24706
-0.29101
-0.31571
-0.31858
-0.30260
-0.28488
-0.28289
-0.28076
-0.28269
-0.30985
-0.31841
-0.32255
-0.34006
-0.35682
-0.33404
-0.25364
-0.11072
0.08459
0.37192
0.74626
1.14642
1.46858
1.58033
1.40801
1.02818
0.55317
0.11530
-0.18432
-0.34325
-0.35701
-0.32666
-0.29057
-0.30960
-0.34402
-0.36785
-0.40639
-0.41997
-0.42310
-0.41419
-0.40864
-0.41296
-0.40365
-0.41057
-0.42299
-0.42588
-0.41714
-0.40317
-0.39975
-0.41554
-0.39626
-0.39683
-0.39901
-0.41908
-0.42313
-0.41033
-0.39909
-0.38639
-0.37348
-0.36415
-0.38526
-0.38700
-0.39814
-0.39732
-0.39346
-0.37387
-0.35810
-0.35133
-0.34906
-0.36008
-0.36755
-0.35755
-0.35021
-0.33320
-0.32153
-0.29803
-0.30209
-0.29211
-0.31466
-0.32980
-0.33781
-0.33988
-0.32615
-0.30956
-0.30048
-0.29796
-0.30326
-0.29402
-0.27297
-0.26012
-0.26539
-0.26224
-0.25587
-0.24100
-0.24796
-0.25515
-0.26547
-0.27792
-0.27629
-0.26889
-0.25790
-0.25041
-0.25815
-0.28155
-0.29632
-0.30023
-0.29930
-0.28391
-0.28389
-0.28783
-0.29677
-0.29721
-0.29874
-0.29219
-0.29711
-0.28536
-0.25684
-0.27174
-0.28388
-0.30229
-0.30860
-0.29843
-0.28553
-0.29312
-0.28086
-0.26565
-0.27235
-0.26391
-0.28127
-0.28617
-0.29578
-0.28507
-0.27501
-0.25368
-0.24656
-0.26348
-0.26570
-0.28424
-0.27655
-0.28253
-0.26353
-0.23067
-0.21723
-0.20610
-0.21010
-0.21430
-0.20581
-0.18945
-0.13596
-0.08420
-0.07061
-0.09149
-0.12303
-0.13344
-0.15507
-0.17155
-0.17958
-0.18318
-0.19962
-0.22640
-0.24930
-0.27283
-0.31885
-0.35504
-0.38048
-0.38379
-0.37248
-0.34556
-0.35501
-0.36486
-0.38000
-0.40009
-0.39608
-0.40301
-0.39565
-0.39905
-0.40954
-0.39881
-0.31919
-0.18919
0.01044
0.30986
0.70379
1.12227
1.42552
1.45745
1.20234
0.73243
0.21685
-0.17500
-0.41031
-0.45047
-0.42334
-0.38071
-0.38601
-0.40860
-0.46022
-0.48882
-0.48959
-0.47322
-0.45683
-0.45615
-0.45988
-0.47129
-0.51411
-0.52446
-0.52591
-0.51011
-0.49276
-0.48126
-0.49706
-0.50634
-0.49225
-0.49590
-0.48640
-0.47288
-0.44741
-0.44820
-0.46214
-0.47120
-0.48161
-0.47448
-0.46934
-0.44995
-0.43403
-0.41034
-0.41399
-0.41205
-0.42414
-0.44278
-0.45293
-0.43678
-0.41207
-0.38821
-0.38051
-0.38007
-0.39341
-0.40113
-0.39755
-0.37715
-0.35833
-0.33936
-0.35583
-0.34910
-0.36036
-0.37560
-0.38144
-0.36729
-0.34188
-0.32628
-0.30358
-0.29572
-0.31242
-0.31071
-0.31869
-0.31115
-0.30664
-0.30955
-0.29709
-0.29701
-0.29229
-0.30756
-0.30201
-0.30544
-0.30668
-0.30496
-0.29922
-0.30184
-0.30257
-0.31653
-0.33419
-0.32701
-0.31411
-0.29563
-0.29121
-0.29867
-0.30633
-0.32155
-0.32632
-0.32883
-0.31872
-0.31822
-0.31246
-0.30010
-0.29665
-0.30157
-0.31961
-0.30839
-0.30586
-0.29445
-0.28379
-0.27595
-0.27484
-0.27517
-0.29986
-0.30545
-0.31210
-0.31899
-0.30333
-0.27353
-0.25446
-0.25232
-0.25441
-0.26910
-0.27299
-0.24246
-0.21279
-0.18623
-0.15395
-0.13191
-0.10770
-0.09891
-0.11251
-0.11592
-0.11073
-0.10942
-0.11589
-0.15211
-0.19754
-0.22967
-0.25574
-0.27954
-0.29400
-0.30277
-0.31272
-0.32560
-0.33056
-0.33251
-0.35192
-0.36128
-0.35761
-0.34302
-0.33092
-0.31796
-0.34543
-0.36400
-0.38071
-0.31456
-0.14047
0.18761
0.59121
1.02618
1.39723
1.55285
1.36792
0.92092
0.36501
-0.07990
-0.33436
-0.40744
-0.38085
-0.32771
-0.30776
-0.33785
-0.37183
-0.41154
-0.41656
-0.40794
-0.38649
-0.38171
-0.39424
-0.42327
-0.43052
-0.43896
-0.42733
-0.40880
-0.39123
-0.37840
-0.38271
-0.39314
-0.40164
-0.39895
-0.40123
-0.38651
-0.36723
-0.36870
-0.36410
-0.37548
-0.39282
-0.38095
-0.36745
-0.35111
-0.33882
-0.31980
-0.32966
-0.33010
-0.34979
-0.34032
-0.34479
-0.33752
-0.31345
-0.28477
-0.26800
-0.26684
-0.28675
-0.30155
-0.28883
-0.29174
-0.27294
-0.26265
-0.25995
-0.25489
-0.25771
-0.25332
-0.26197
-0.26666
-0.26687
-0.25123
-0.22229
-0.19896
-0.19034
-0.19819
-0.20365
-0.19054
-0.18620
-0.19001
-0.19188
-0.17843
-0.16251
-0.17382
-0.18245
-0.19476
-0.20779
-0.23140
-0.21550
-0.20423
-0.18239
-0.17748
-0.22084
-0.22536
-0.23728
-0.21078
-0.18631
-0.18690
-0.18155
-0.17809
-0.17963
-0.19398
-0.19106
-0.20030
-0.18999
-0.17718
-0.17444
-0.17966
-0.19836
-0.19804
-0.19402
-0.18821
-0.18115
-0.17235
-0.17604
-0.17124
-0.15869
-0.16510
-0.17282
-0.18458
-0.18754
-0.17820
-0.16252
-0.15834
-0.15036
-0.14037
-0.13079
-0.13158
-0.11297
-0.09722
-0.09119
-0.05042
-0.02476
-0.00343
0.00812
0.00662
0.00298
0.00492
0.00373
-0.01134
-0.05890
-0.12424
-0.14405
-0.15887
-0.16343
-0.17514
-0.20012
-0.22059
-0.24368
-0.25185
-0.24679
-0.25601
-0.25875
-0.25019
-0.24514
-0.22965
-0.23612
-0.25291
-0.27783
-0.27581
-0.20485
-0.06247
0.18018
0.51964
0.92911
1.34352
1.62022
1.67629
1.43562
0.99576
0.51100
0.09683
-0.17132
-0.29210
-0.31338
-0.26301
-0.22938
-0.23236
-0.25447
-0.28432
-0.29449
-0.29572
-0.30440
-0.30313
-0.30322
-0.29366
-0.31218
-0.33185
-0.32664
-0.31056
-0.29195
-0.29593
-0.29702
-0.30196
-0.30307
-0.30921
-0.31069
-0.29685
-0.29170
-0.30099
-0.28603
-0.27531
-0.27132
-0.26267
-0.26096
-0.24006
-0.25123
-0.27320
-0.28815
-0.29988
-0.28885
-0.25455
-0.24558
-0.21585
-0.21511
-0.20877
-0.20889
-0.21637
-0.22424
-0.21029
-0.20452
-0.18517
-0.16655
-0.15610
-0.16517
-0.18286
-0.20329
-0.22365
-0.19953
-0.17323
-0.14764
-0.14614
-0.14806
-0.14767
-0.15560
-0.15720
-0.13464
-0.11189
-0.09208
-0.07812
-0.07733
-0.07953
-0.10536
-0.12396
-0.11753
-0.11240
-0.10952
-0.10008
-0.09818
-0.09073
-0.09236
-0.10697
-0.12639
-0.14370
-0.14048
-0.13392
-0.12019
-0.09656
-0.09400
-0.11309
-0.13113
-0.14323
-0.12126
-0.11071
-0.10378
-0.11320
-0.12901
-0.13348
-0.12154
-0.12390
-0.11086
-0.10150
-0.08024
-0.08677
-0.08711
-0.08170
-0.09335
-0.10281
-0.09619
-0.07838
-0.05869
-0.05843
-0.06592
-0.07997
-0.08116
-0.09934
-0.11097
-0.10600
-0.07927
-0.05677
-0.05331
-0.04098
-0.03182
-0.02042
-0.02308
-0.02107
0.00491
0.03701
0.09741
0.11010
0.12032
0.09255
0.07344
0.06879
0.06354
0.06326
0.02951
-0.00253
-0.02447
-0.05213
-0.08767
-0.12279
-0.13746
-0.13134
-0.14204
-0.15089
-0.16084
-0.16256
-0.15697
-0.15923
-0.16138
-0.15741
-0.17788
-0.19976
-0.18021
-0.09515
0.06938
0.31817
0.69976
1.13432
1.54441
1.80949
1.75619
1.41868
0.90186
0.39078
0.03952
-0.14741
-0.18673
-0.15752
-0.11749
-0.10047
-0.15017
-0.20999
-0.25072
-0.24645
-0.23484
-0.22169
-0.22796
-0.22744
-0.22902
-0.24396
-0.24883
-0.24110
-0.24922
-0.23766
-0.22827
-0.22478
-0.22581
-0.24126
-0.24412
-0.22761
-0.21770
-0.20914
-0.22403
-0.22140
-0.22033
-0.23343
-0.22955
-0.21204
-0.18789
-0.18181
-0.17963
-0.18755
-0.17881
-0.18620
-0.18518
-0.17008
-0.14936
-0.13937
-0.12513
-0.12103
-0.12671
-0.12961
-0.13526
-0.12934
-0.11408
-0.11001
-0.10786
-0.09441
-0.10348
-0.10496
-0.09864
-0.09080
-0.08618
-0.08147
-0.07542
-0.06465
-0.05114
-0.04853
-0.03402
-0.03605
-0.03971
-0.05029
-0.06608
-0.06285
-0.05524
-0.05153
-0.05590
-0.06743
-0.08982
-0.08382
-0.07888
-0.06140
-0.04437
-0.04766
-0.07354
-0.11053
-0.10440
-0.09392
-0.08621
-0.08288
-0.09879
-0.08871
-0.08533
-0.07256
-0.07360
-0.07664
-0.07164
-0.06399
-0.06505
-0.07773
-0.06552
-0.05420
-0.06790
-0.07713
-0.07050
-0.06060
-0.05339
-0.04934
-0.05652
-0.06927
-0.05800
-0.07783
-0.08254
-0.07098
-0.05451
-0.04618
-0.03890
-0.03852
-0.05364
-0.05163
-0.04477
-0.01375
0.01614
0.02980
0.04879
0.04079
0.05606
0.08219
0.08226
0.09022
0.09302
0.09033
0.07928
0.07571
0.07831
0.05784
0.03436
-0.02680
-0.05042
-0.05704
-0.07738
-0.09701
-0.12500
-0.15199
-0.18133
-0.18918
-0.19307
-0.17854
-0.16153
-0.13918
-0.15285
-0.16409
-0.18197
-0.21423
-0.23301
-0.21558
-0.15855
-0.03861
0.14073
0.38003
0.69993
1.10402
1.52002
1.77895
1.75265
1.44810
0.96287
0.45294
0.05427
-0.17732
-0.21317
-0.17654
-0.15633
-0.16759
-0.21227
-0.25801
-0.29133
-0.30736
-0.30644
-0.30304
-0.30146
-0.30088
-0.30169
-0.28665
-0.28315
-0.30729
-0.31644
-0.30513
-0.31170
-0.30846
-0.30566
-0.30797
-0.31826
-0.32889
-0.33369
-0.31885
-0.30084
-0.29981
-0.30027
-0.28355
-0.28294
-0.30089
-0.29743
-0.30047
-0.29774
-0.27829
-0.26645
-0.26699
-0.26094
-0.25156
-0.26111
-0.29084
-0.28083
-0.27995
-0.25690
-0.23480
-0.21813
-0.20603
-0.22160
-0.23310
-0.24634
-0.23611
-0.23202
-0.22393
-0.20229
-0.20355
-0.20826
-0.20745
-0.20583
-0.18564
-0.18696
-0.17175
-0.14713
-0.14173
-0.13937
-0.15531
-0.16574
-0.18591
-0.18136
-0.19041
-0.19564
-0.18504
-0.18177
-0.17594
-0.18067
-0.18246
-0.18697
-0.19159
-0.20777
-0.21284
-0.19358
-0.19946
-0.19675
-0.21397
-0.20818
-0.19336
-0.20016
-0.21455
-0.21475
-0.21555
-0.21356
-0.21244
-0.19900
-0.18899
-0.16932
-0.15926
-0.15839
-0.16777
-0.17629
-0.18942
-0.19710
-0.19055
-0.18059
-0.16638
-0.15639
-0.16086
-0.15965
-0.18111
-0.19240
-0.20087
-0.18925
-0.18200
-0.16460
-0.14899
-0.14167
-0.13708
-0.14545
-0.14135
-0.11399
-0.08616
-0.05156
-0.02240
-0.00355
-0.00101
-0.02422
-0.03531
-0.04210
-0.04495
-0.03182
-0.02088
-0.04260
-0.06212
-0.09283
-0.12784
-0.16252
-0.19462
-0.22298
-0.23365
-0.25270
-0.26673
-0.26510
-0.27911
-0.27620
-0.28776
-0.28927
-0.27688
-0.26839
-0.27692
-0.30367
-0.30897
-0.32197
-0.31644
-0.24880
-0.11772
0.10576
0.39064
0.75347
1.12475
1.45761
1.59954
1.44398
1.09917
0.64980
0.22201
-0.08253
-0.25072
-0.29761
-0.29740
-0.27565
-0.25462
-0.27503
-0.30481
-0.33922
-0.36541
-0.39929
-0.40350
-0.39314
-0.39564
-0.37580
-0.37842
-0.39498
-0.39188
-0.37198
-0.37959
-0.38503
-0.40734
-0.40367
-0.39374
-0.39797
-0.38928
-0.38870
-0.39240
-0.41382
-0.40074
-0.38873
-0.37276
-0.36611
-0.37331
-0.38211
-0.38787
-0.40045
-0.39944
-0.38819
-0.38686
-0.37845
-0.37453
-0.35940
-0.36315
-0.36399
-0.35612
-0.35867
-0.34327
-0.33557
-0.33065
-0.32206
-0.32061
-0.31448
-0.31140
-0.31609
-0.30375
-0.29026
-0.29871
-0.30143
-0.30471
-0.30675
-0.30434
-0.28448
-0.24832
-0.22888
-0.21202
-0.22040
-0.24065
-0.25370
-0.25028
-0.24614
-0.24860
-0.23963
-0.23899
-0.24182
-0.23925
-0.26836
-0.28680
-0.28186
-0.28204
-0.27618
-0.27646
-0.27525
-0.27220
-0.29203
-0.29821
-0.29899
-0.30057
-0.28005
-0.27865
-0.28311
-0.28711
-0.29200
-0.29471
-0.29178
-0.28733
-0.27901
-0.26205
-0.25185
-0.26046
-0.26204
-0.26729
-0.28709
-0.29428
-0.28149
-0.26464
-0.25522
-0.25520
-0.24164
-0.26093
-0.27712
-0.28580
-0.28614
-0.27868
-0.25045
-0.21649
-0.20395
-0.21639
-0.22339
-0.22173
-0.19080
-0.15183
-0.12424
-0.09917
-0.07572
-0.07079
-0.11043
-0.14635
-0.15785
-0.13595
-0.15842
-0.16398
-0.18859
-0.21872
-0.24236
-0.30396
-0.34213
-0.36115
-0.35804
-0.35949
-0.35972
-0.35995
-0.36602
-0.36938
-0.37069
-0.37974
-0.38942
-0.40163
-0.42140
-0.43680
-0.40815
-0.31702
-0.14566
0.14902
0.54200
0.97697
1.33649
1.47050
1.30840
0.89364
0.36094
-0.08875
-0.35640
-0.44651
-0.42860
-0.37076
-0.34481
-0.38139
-0.42505
-0.48056
-0.50879
-0.50111
-0.49075
-0.45673
-0.45743
-0.46757
-0.48977
-0.50747
-0.49959
-0.50032
-0.48205
-0.46592
-0.46059
-0.46968
-0.50319
-0.51543
-0.50200
-0.48782
-0.47742
-0.47975
-0.47083
-0.46887
-0.47873
-0.50331
-0.49190
-0.47531
-0.47648
-0.46983
-0.46936
-0.45752
-0.44589
-0.44770
-0.45863
-0.45974
-0.44688
-0.45178
-0.44542
-0.44377
-0.42839
-0.42450
-0.44072
-0.42650
-0.43029
-0.42539
-0.41821
-0.41539
-0.41871
-0.41262
-0.42276
-0.42942
-0.43073
-0.41131
-0.38586
-0.37601
-0.36861
-0.36204
-0.37134
-0.36399
-0.35734
-0.33461
-0.32922
-0.32127
-0.32617
-0.31861
-0.32962
-0.35325
-0.37244
-0.37241
-0.35254
-0.33460
-0.33197
-0.34944
-0.36932
-0.37360
-0.39437
-0.38408
-0.36341
-0.33735
-0.32685
-0.33992
-0.34459
-0.35784
-0.38401
-0.40661
-0.40243
-0.36659
-0.35159
-0.34282
-0.34125
-0.34037
-0.33801
-0.35618
-0.36608
-0.36245
-0.34857
-0.34094
-0.34324
-0.34637
-0.34955
-0.37268
-0.37998
-0.36928
-0.37869
-0.36753
-0.35133
-0.34434
-0.34263
-0.34171
-0.34168
-0.33007
-0.28970
-0.27045
-0.27319
-0.26841
-0.25059
-0.23795
-0.20552
-0.18506
-0.18096
-0.19209
-0.20634
-0.21458
-0.23786
-0.25135
-0.27445
-0.30697
-0.34291
-0.36736
-0.37517
-0.40721
-0.41465
-0.44597
-0.44970
-0.45379
-0.45743
-0.45993
-0.44662
-0.45176
-0.44864
-0.46061
-0.49058
-0.51022
-0.48446
-0.41555
-0.26214
-0.00459
0.35143
0.75146
1.11564
1.31365
1.23384
0.89523
0.40870
-0.05646
-0.38495
-0.54689
-0.56735
-0.51591
-0.46475
-0.45249
-0.47683
-0.50764
-0.52721
-0.53698
-0.55034
-0.56562
-0.57445
-0.56953
-0.56104
-0.55512
-0.54878
-0.55229
-0.55935
-0.56549
-0.56588
-0.55894
-0.55099
-0.54031
-0.53072
-0.54856
-0.55464
-0.56146
-0.57723
-0.55583
-0.54204
-0.52583
-0.51129
-0.52056
-0.51561
-0.51402
-0.51469
-0.52484
-0.51679
-0.50606
-0.48439
-0.46103
-0.46586
-0.46906
-0.48055
-0.49367
-0.49454
-0.47784
-0.46200
-0.44790
-0.45304
-0.44711
-0.45271
-0.45802
-0.45715
-0.45089
-0.44092
-0.42718
-0.41903
-0.41032
-0.39301
-0.39657
-0.38233
-0.37621
-0.34562
-0.32963
-0.32010
-0.32724
-0.36570
-0.37528
-0.38656
-0.39960
-0.38604
-0.37969
-0.36448
-0.35973
-0.36868
-0.36662
-0.37141
-0.38436
-0.38248
-0.38668
-0.38917
-0.37417
-0.36421
-0.36044
-0.37774
-0.37763
-0.38251
-0.38193
-0.35780
-0.34904
-0.35389
-0.36208
-0.37570
-0.38989
-0.38530
-0.38257
-0.35695
-0.34438
-0.34723
-0.37303
-0.36529
-0.38751
-0.37510
-0.37127
-0.35671
-0.36169
-0.36007
-0.36958
-0.36760
-0.36016
-0.34419
-0.34342
-0.31798
-0.30058
-0.28040
-0.26321
-0.25551
-0.24123
-0.23483
-0.21566
-0.19809
-0.17659
-0.18111
-0.19760
-0.21882
-0.23314
-0.26597
-0.30719
-0.33735
-0.36034
-0.36845
-0.38965
-0.40361
-0.42449
-0.44682
-0.44691
-0.44574
-0.43823
-0.43557
-0.42540
-0.42317
-0.43510
-0.44709
-0.48179
-0.49424
-0.48563
-0.43704
-0.31011
-0.10402
0.22287
0.59476
0.95529
1.23558
1.32998
1.14139
0.74239
0.25604
-0.13822
-0.37733
-0.47783
-0.48686
-0.46348
-0.43593
-0.42703
-0.44817
-0.49110
-0.51996
-0.52860
-0.52534
-0.51263
-0.50322
-0.50251
-0.49998
-0.51535
-0.53221
-0.53107
-0.52843
-0.50892
-0.50354
-0.50633
-0.50216
-0.50823
-0.51857
-0.50350
-0.49690
-0.50345
-0.50514
-0.51662
-0.50209
-0.49530
-0.48793
-0.47834
-0.48622
-0.48243
-0.48708
-0.48652
-0.47357
-0.46335
-0.45378
-0.44669
-0.45052
-0.46946
-0.46509
-0.46012
-0.45904
-0.43405
-0.41441
-0.40040
-0.41011
-0.42232
-0.43406
-0.42779
-0.42712
-0.41648
-0.41318
-0.41768
-0.40675
-0.40781
-0.39777
-0.39551
-0.38980
-0.39260
-0.38071
-0.37171
-0.33752
-0.32999
-0.32664
-0.32780
-0.33968
-0.33319
-0.31945
-0.31880
-0.33053
-0.33919
-0.34683
-0.35891
-0.35362
-0.35622
-0.35071
-0.34146
-0.34366
-0.34537
-0.36377
-0.38356
-0.37666
-0.37439
-0.36005
-0.35521
-0.34887
-0.34471
-0.34184
-0.36433
-0.38811
-0.37109
-0.36062
-0.34805
-0.33062
-0.33551
-0.35002
-0.35081
-0.36042
-0.35777
-0.35440
-0.33502
-0.32198
-0.32875
-0.34404
-0.34051
-0.34742
-0.35249
-0.35644
-0.34815
-0.32025
-0.34600
-0.34501
-0.33546
-0.34753
-0.33126
-0.31985
-0.31089
-0.27551
-0.24930
-0.25159
-0.25351
-0.23440
-0.20028
-0.18299
-0.17857
-0.18609
-0.17896
-0.18329
-0.19050
-0.21619
-0.23779
-0.26160
-0.29826
-0.32328
-0.33113
-0.34904
-0.36054
-0.38219
-0.40971
-0.41193
-0.40774
-0.40461
-0.41151
-0.41347
-0.41115
-0.42045
-0.43087
-0.42832
-0.42801
-0.44854
-0.46512
-0.45920
-0.40610
-0.29160
-0.12619
0.13640
0.46311
0.85320
1.20163
1.37709
1.28339
0.95353
0.49916
0.03660
-0.29158
-0.46220
-0.49700
-0.42948
-0.39330
-0.40399
-0.44637
-0.49728
-0.50992
-0.51488
-0.51817
-0.49575
-0.48238
-0.49468
-0.50217
-0.52570
-0.53725
-0.53268
-0.51962
-0.49882
-0.48701
-0.49521
-0.48381
-0.49408
-0.49529
-0.49405
-0.48572
-0.49248
-0.47866
-0.47587
-0.47896
-0.47061
-0.48530
-0.49192
-0.49326
-0.49083
-0.47846
-0.44542
-0.43720
-0.43195
-0.43982
-0.44580
-0.44800
-0.45454
-0.44326
-0.43274
-0.42330
-0.40509
-0.40224
-0.41427
-0.41592
-0.40443
-0.38681
-0.37723
-0.36838
-0.37750
-0.39795
-0.41324
-0.42326
-0.41283
-0.40568
-0.39708
-0.37406
-0.34772
-0.34582
-0.33705
-0.33321
-0.33446
-0.33470
-0.32979
-0.31428
-0.31490
-0.32063
-0.32508
-0.33821
-0.34703
-0.34743
-0.34760
-0.33665
-0.34173
-0.34013
-0.34697
-0.36899
-0.36580
-0.36964
-0.35460
-0.34092
-0.33776
-0.34242
-0.35131
-0.36394
-0.35224
-0.33782
-0.34530
-0.34163
-0.33376
-0.32696
-0.33255
-0.34060
-0.34555
-0.34364
-0.32808
-0.32126
-0.31935
-0.32077
-0.32378
-0.33732
-0.34161
-0.34037
-0.34101
-0.34188
-0.32516
-0.32829
-0.33414
-0.32406
-0.31348
-0.30115
-0.28946
-0.27303
-0.24344
-0.22715
-0.22289
-0.19760
-0.17896
-0.16617
-0.17650
-0.17976
-0.16978
-0.17071
-0.16883
-0.21009
-0.25224
-0.29381
-0.31770
-0.34701
-0.36536
-0.36629
-0.36006
-0.37092
-0.38762
-0.39314
-0.41806
-0.41311
-0.40701
-0.40666
-0.38405
-0.38522
-0.39631
-0.41964
-0.44316
-0.42708
-0.32269
-0.12983
0.16652
0.54756
0.93299
1.23391
1.39798
1.29471
0.91012
0.40348
-0.04833
-0.32920
-0.45628
-0.47022
-0.42656
-0.39016
-0.39010
-0.41758
-0.45063
-0.46678
-0.46954
-0.47175
-0.47206
-0.47606
-0.47216
-0.48389
-0.47835
-0.47141
-0.46663
-0.48592
-0.47911
-0.47401
-0.46095
-0.46901
-0.45677
-0.43929
-0.44009
-0.44702
-0.44844
-0.45653
-0.47289
-0.45929
-0.44711
-0.43569
-0.41952
-0.42217
-0.42220
-0.43578
-0.44614
-0.43417
-0.43063
-0.41854
-0.40861
